# n + 208Pb: Gamma-ray intensity - 209Pb: Level  4 --> Level  3 - gamma energy    0.465130
# E-initial  =   2.032220 E-final=   1.567090
# E-threshold= 0.00000E+00
# # energies = 67
#    E         xs
 1.000E-11 0.00000E+00
 2.530E-08 0.00000E+00
 2.000E-07 0.00000E+00
 1.000E-06 1.95827E+02
 1.000E-03 6.72328E-01
 2.000E-03 3.96573E-01
 5.000E-03 2.08090E-01
 1.000E-02 1.20767E-01
 2.000E-02 6.62456E-02
 5.000E-02 3.02318E-02
 1.000E-01 1.75944E-02
 2.000E-01 1.12516E-02
 3.000E-01 9.39395E-03
 4.000E-01 8.73984E-03
 5.000E-01 8.60677E-03
 7.500E-01 9.41310E-03
 1.000E+00 1.11372E-02
 1.200E+00 1.30539E-02
 1.400E+00 1.56563E-02
 1.600E+00 1.84815E-02
 1.800E+00 2.21960E-02
 2.000E+00 2.66460E-02
 2.200E+00 3.18770E-02
 2.400E+00 3.80836E-02
 2.600E+00 4.68759E-02
 2.800E+00 4.47582E-02
 3.000E+00 4.60911E-02
 3.200E+00 5.08626E-02
 3.400E+00 5.38399E-02
 3.600E+00 5.93708E-02
 3.800E+00 6.16917E-02
 4.000E+00 6.67952E-02
 4.200E+00 6.44622E-02
 4.400E+00 6.73368E-02
 4.600E+00 5.89276E-02
 4.800E+00 5.51373E-02
 5.000E+00 5.13805E-02
 5.500E+00 5.08277E-02
 6.000E+00 5.23343E-02
 6.500E+00 6.03106E-02
 7.000E+00 7.13933E-02
 7.500E+00 9.16261E-02
 8.000E+00 1.20030E-01
 8.500E+00 1.56970E-01
 9.000E+00 2.03139E-01
 9.500E+00 2.47147E-01
 1.000E+01 2.71064E-01
 1.100E+01 2.56077E-01
 1.200E+01 2.04273E-01
 1.300E+01 1.50997E-01
 1.400E+01 1.22720E-01
 1.500E+01 1.04015E-01
 1.600E+01 9.08626E-02
 1.700E+01 8.12675E-02
 1.800E+01 7.00528E-02
 1.900E+01 6.50860E-02
 2.000E+01 6.10694E-02
 2.100E+01 5.82044E-02
 2.200E+01 5.55839E-02
 2.300E+01 5.35274E-02
 2.400E+01 5.14908E-02
 2.500E+01 4.91814E-02
 2.600E+01 4.72759E-02
 2.700E+01 4.41683E-02
 2.800E+01 4.02677E-02
 2.900E+01 3.86438E-02
 3.000E+01 3.70163E-02
