# n + 208Pb: Gamma-ray intensity - 208Pb: Level 15 --> Level  4 - gamma energy    0.497830
# E-initial  =   4.206280 E-final=   3.708450
# E-threshold= 4.22668E+00
# # energies = 67
#    E         xs
 1.000E-11 0.00000E+00
 2.530E-08 0.00000E+00
 2.000E-07 0.00000E+00
 1.000E-06 0.00000E+00
 1.000E-03 0.00000E+00
 2.000E-03 0.00000E+00
 5.000E-03 0.00000E+00
 1.000E-02 0.00000E+00
 2.000E-02 0.00000E+00
 5.000E-02 0.00000E+00
 1.000E-01 0.00000E+00
 2.000E-01 0.00000E+00
 3.000E-01 0.00000E+00
 4.000E-01 0.00000E+00
 5.000E-01 0.00000E+00
 7.500E-01 0.00000E+00
 1.000E+00 0.00000E+00
 1.200E+00 0.00000E+00
 1.400E+00 0.00000E+00
 1.600E+00 0.00000E+00
 1.800E+00 0.00000E+00
 2.000E+00 0.00000E+00
 2.200E+00 0.00000E+00
 2.400E+00 0.00000E+00
 2.600E+00 0.00000E+00
 2.800E+00 0.00000E+00
 3.000E+00 0.00000E+00
 3.200E+00 0.00000E+00
 3.400E+00 0.00000E+00
 3.600E+00 0.00000E+00
 3.800E+00 0.00000E+00
 4.000E+00 0.00000E+00
 4.200E+00 0.00000E+00
 4.400E+00 3.06660E+00
 4.600E+00 4.56979E+00
 4.800E+00 5.63106E+00
 5.000E+00 6.32794E+00
 5.500E+00 7.21483E+00
 6.000E+00 7.82931E+00
 6.500E+00 8.52046E+00
 7.000E+00 9.31431E+00
 7.500E+00 1.02194E+01
 8.000E+00 1.10677E+01
 8.500E+00 1.14646E+01
 9.000E+00 1.09599E+01
 9.500E+00 9.72242E+00
 1.000E+01 8.08838E+00
 1.100E+01 5.00327E+00
 1.200E+01 3.02011E+00
 1.300E+01 2.02819E+00
 1.400E+01 1.55944E+00
 1.500E+01 1.33828E+00
 1.600E+01 1.21927E+00
 1.700E+01 1.14788E+00
 1.800E+01 1.07314E+00
 1.900E+01 1.00856E+00
 2.000E+01 9.66567E-01
 2.100E+01 9.19639E-01
 2.200E+01 8.71856E-01
 2.300E+01 8.35161E-01
 2.400E+01 7.92433E-01
 2.500E+01 7.43036E-01
 2.600E+01 7.02933E-01
 2.700E+01 6.67120E-01
 2.800E+01 6.39898E-01
 2.900E+01 6.16178E-01
 3.000E+01 5.92963E-01
