# n + 208Pb: Gamma-ray intensity - 208Pb: Level 14 --> Level  3 - gamma energy    0.650200
# E-initial  =   4.125310 E-final=   3.475110
# E-threshold= 4.14532E+00
# # energies = 67
#    E         xs
 1.000E-11 0.00000E+00
 2.530E-08 0.00000E+00
 2.000E-07 0.00000E+00
 1.000E-06 0.00000E+00
 1.000E-03 0.00000E+00
 2.000E-03 0.00000E+00
 5.000E-03 0.00000E+00
 1.000E-02 0.00000E+00
 2.000E-02 0.00000E+00
 5.000E-02 0.00000E+00
 1.000E-01 0.00000E+00
 2.000E-01 0.00000E+00
 3.000E-01 0.00000E+00
 4.000E-01 0.00000E+00
 5.000E-01 0.00000E+00
 7.500E-01 0.00000E+00
 1.000E+00 0.00000E+00
 1.200E+00 0.00000E+00
 1.400E+00 0.00000E+00
 1.600E+00 0.00000E+00
 1.800E+00 0.00000E+00
 2.000E+00 0.00000E+00
 2.200E+00 0.00000E+00
 2.400E+00 0.00000E+00
 2.600E+00 0.00000E+00
 2.800E+00 0.00000E+00
 3.000E+00 0.00000E+00
 3.200E+00 0.00000E+00
 3.400E+00 0.00000E+00
 3.600E+00 0.00000E+00
 3.800E+00 0.00000E+00
 4.000E+00 0.00000E+00
 4.200E+00 5.73303E+00
 4.400E+00 1.21285E+01
 4.600E+00 1.38184E+01
 4.800E+00 1.31627E+01
 5.000E+00 1.18699E+01
 5.500E+00 9.46720E+00
 6.000E+00 8.49398E+00
 6.500E+00 8.04971E+00
 7.000E+00 7.83242E+00
 7.500E+00 7.73398E+00
 8.000E+00 7.22188E+00
 8.500E+00 6.11049E+00
 9.000E+00 4.81156E+00
 9.500E+00 3.65260E+00
 1.000E+01 2.71858E+00
 1.100E+01 1.57551E+00
 1.200E+01 1.07433E+00
 1.300E+01 8.48360E-01
 1.400E+01 7.38813E-01
 1.500E+01 6.81004E-01
 1.600E+01 6.45125E-01
 1.700E+01 6.29318E-01
 1.800E+01 6.06451E-01
 1.900E+01 5.86610E-01
 2.000E+01 5.70605E-01
 2.100E+01 5.57061E-01
 2.200E+01 5.41544E-01
 2.300E+01 5.27040E-01
 2.400E+01 5.10740E-01
 2.500E+01 4.95629E-01
 2.600E+01 4.78348E-01
 2.700E+01 4.63711E-01
 2.800E+01 4.50382E-01
 2.900E+01 4.40560E-01
 3.000E+01 4.28707E-01
