# n + 208Pb: Gamma-ray intensity - 209Pb: Level  8 --> Level  3 - gamma energy    0.895910
# E-initial  =   2.463000 E-final=   1.567090
# E-threshold= 0.00000E+00
# # energies = 67
#    E         xs
 1.000E-11 0.00000E+00
 2.530E-08 0.00000E+00
 2.000E-07 0.00000E+00
 1.000E-06 2.59992E-03
 1.000E-03 2.09964E-03
 2.000E-03 2.82867E-03
 5.000E-03 3.43622E-03
 1.000E-02 2.68112E-03
 2.000E-02 1.68272E-03
 5.000E-02 9.10194E-04
 1.000E-01 6.73892E-04
 2.000E-01 6.97141E-04
 3.000E-01 7.51385E-04
 4.000E-01 7.87112E-04
 5.000E-01 8.25513E-04
 7.500E-01 9.63439E-04
 1.000E+00 1.16388E-03
 1.200E+00 1.37324E-03
 1.400E+00 1.63921E-03
 1.600E+00 1.95079E-03
 1.800E+00 2.33837E-03
 2.000E+00 2.80414E-03
 2.200E+00 3.35745E-03
 2.400E+00 4.01432E-03
 2.600E+00 4.84808E-03
 2.800E+00 3.41329E-03
 3.000E+00 3.22273E-03
 3.200E+00 3.37879E-03
 3.400E+00 3.16298E-03
 3.600E+00 3.11585E-03
 3.800E+00 3.04046E-03
 4.000E+00 3.05211E-03
 4.200E+00 2.67694E-03
 4.400E+00 2.11589E-03
 4.600E+00 1.82554E-03
 4.800E+00 1.62937E-03
 5.000E+00 1.42955E-03
 5.500E+00 1.19613E-03
 6.000E+00 1.00673E-03
 6.500E+00 9.63716E-04
 7.000E+00 9.44635E-04
 7.500E+00 1.05041E-03
 8.000E+00 1.24935E-03
 8.500E+00 1.53792E-03
 9.000E+00 2.09623E-03
 9.500E+00 2.97773E-03
 1.000E+01 4.07571E-03
 1.100E+01 5.51511E-03
 1.200E+01 4.28028E-03
 1.300E+01 2.64999E-03
 1.400E+01 1.94022E-03
 1.500E+01 1.56956E-03
 1.600E+01 1.31111E-03
 1.700E+01 1.12621E-03
 1.800E+01 9.33086E-04
 1.900E+01 8.55910E-04
 2.000E+01 8.10955E-04
 2.100E+01 7.67603E-04
 2.200E+01 7.19586E-04
 2.300E+01 7.06008E-04
 2.400E+01 6.89982E-04
 2.500E+01 6.76246E-04
 2.600E+01 6.77295E-04
 2.700E+01 6.59576E-04
 2.800E+01 6.12441E-04
 2.900E+01 6.18257E-04
 3.000E+01 6.31475E-04
