# n + 208Pb: Gamma-ray intensity - 209Pb: Level  8 --> Level  3 - gamma energy    0.895910
# E-initial  =   2.463000 E-final=   1.567090
# E-threshold= 0.00000E+00
# # energies = 66
#    E         xs
 1.000E-11 0.00000E+00
 2.530E-08 0.00000E+00
 1.000E-06 0.00000E+00
 1.000E-03 0.00000E+00
 2.000E-03 0.00000E+00
 5.000E-03 0.00000E+00
 1.000E-02 0.00000E+00
 2.000E-02 0.00000E+00
 5.000E-02 0.00000E+00
 1.000E-01 0.00000E+00
 2.000E-01 0.00000E+00
 3.000E-01 0.00000E+00
 4.000E-01 0.00000E+00
 5.000E-01 0.00000E+00
 7.500E-01 0.00000E+00
 1.000E+00 1.19590E-03
 1.200E+00 1.30032E-03
 1.400E+00 1.43435E-03
 1.600E+00 1.58007E-03
 1.800E+00 1.76065E-03
 2.000E+00 1.97172E-03
 2.200E+00 2.21558E-03
 2.400E+00 2.50207E-03
 2.600E+00 2.99482E-03
 2.800E+00 2.17862E-03
 3.000E+00 2.08230E-03
 3.200E+00 2.20374E-03
 3.400E+00 2.09116E-03
 3.600E+00 2.08536E-03
 3.800E+00 2.09384E-03
 4.000E+00 2.15341E-03
 4.200E+00 1.93628E-03
 4.400E+00 1.57794E-03
 4.600E+00 1.36643E-03
 4.800E+00 1.21906E-03
 5.000E+00 1.07135E-03
 5.500E+00 8.82583E-04
 6.000E+00 7.39623E-04
 6.500E+00 7.09499E-04
 7.000E+00 7.07334E-04
 7.500E+00 8.14834E-04
 8.000E+00 1.02138E-03
 8.500E+00 1.35178E-03
 9.000E+00 2.00253E-03
 9.500E+00 3.10167E-03
 1.000E+01 4.65606E-03
 1.100E+01 7.26540E-03
 1.200E+01 5.87185E-03
 1.300E+01 3.47003E-03
 1.400E+01 2.44095E-03
 1.500E+01 1.90483E-03
 1.600E+01 1.55289E-03
 1.700E+01 1.32570E-03
 1.800E+01 1.07366E-03
 1.900E+01 9.76237E-04
 2.000E+01 9.17029E-04
 2.100E+01 8.63323E-04
 2.200E+01 8.17819E-04
 2.300E+01 7.95461E-04
 2.400E+01 7.68986E-04
 2.500E+01 7.63143E-04
 2.600E+01 7.60475E-04
 2.700E+01 7.25361E-04
 2.800E+01 6.64730E-04
 2.900E+01 6.68630E-04
 3.000E+01 6.76651E-04
