# n + 208Pb: Gamma-ray intensity - 209Pb: Level  5 --> Level  4 - gamma energy    0.117210
# E-initial  =   2.149430 E-final=   2.032220
# E-threshold= 0.00000E+00
# # energies = 67
#    E         xs
 1.000E-11 0.00000E+00
 2.530E-08 0.00000E+00
 2.000E-07 0.00000E+00
 1.000E-06 7.10195E+01
 1.000E-03 1.59155E-01
 2.000E-03 9.40746E-02
 5.000E-03 4.93382E-02
 1.000E-02 2.84340E-02
 2.000E-02 1.55088E-02
 5.000E-02 7.00713E-03
 1.000E-01 4.04800E-03
 2.000E-01 2.57664E-03
 3.000E-01 2.14815E-03
 4.000E-01 1.99701E-03
 5.000E-01 1.96526E-03
 7.500E-01 2.14405E-03
 1.000E+00 2.52973E-03
 1.200E+00 2.95778E-03
 1.400E+00 3.53518E-03
 1.600E+00 4.16386E-03
 1.800E+00 4.98947E-03
 2.000E+00 5.97373E-03
 2.200E+00 7.12985E-03
 2.400E+00 8.48533E-03
 2.600E+00 1.04163E-02
 2.800E+00 1.03033E-02
 3.000E+00 1.06967E-02
 3.200E+00 1.18017E-02
 3.400E+00 1.25237E-02
 3.600E+00 1.38801E-02
 3.800E+00 1.44519E-02
 4.000E+00 1.56845E-02
 4.200E+00 1.51674E-02
 4.400E+00 1.20388E-02
 4.600E+00 9.96229E-03
 4.800E+00 8.75496E-03
 5.000E+00 7.48372E-03
 5.500E+00 6.48816E-03
 6.000E+00 5.93171E-03
 6.500E+00 6.45208E-03
 7.000E+00 7.44624E-03
 7.500E+00 9.91526E-03
 8.000E+00 1.40633E-02
 8.500E+00 2.12244E-02
 9.000E+00 3.34785E-02
 9.500E+00 5.12915E-02
 1.000E+01 6.78675E-02
 1.100E+01 6.69302E-02
 1.200E+01 4.56421E-02
 1.300E+01 2.89295E-02
 1.400E+01 2.17184E-02
 1.500E+01 1.76943E-02
 1.600E+01 1.50711E-02
 1.700E+01 1.32057E-02
 1.800E+01 1.11567E-02
 1.900E+01 1.04622E-02
 2.000E+01 9.79993E-03
 2.100E+01 9.15438E-03
 2.200E+01 8.54307E-03
 2.300E+01 8.23290E-03
 2.400E+01 7.95628E-03
 2.500E+01 7.69913E-03
 2.600E+01 7.51758E-03
 2.700E+01 7.00018E-03
 2.800E+01 6.62826E-03
 2.900E+01 6.53457E-03
 3.000E+01 6.47880E-03
