# n + 208Pb: Gamma-ray intensity - 209Pb: Level  9 --> Level  1 - gamma energy    1.712200
# E-initial  =   2.491000 E-final=   0.778800
# E-threshold= 0.00000E+00
# # energies = 67
#    E         xs
 1.000E-11 0.00000E+00
 2.530E-08 0.00000E+00
 2.000E-07 0.00000E+00
 1.000E-06 3.15264E-05
 1.000E-03 4.97410E-05
 2.000E-03 7.93177E-05
 5.000E-03 9.93792E-05
 1.000E-02 7.74956E-05
 2.000E-02 4.88905E-05
 5.000E-02 1.07098E-04
 1.000E-01 1.15788E-04
 2.000E-01 9.89635E-05
 3.000E-01 9.19822E-05
 4.000E-01 9.20616E-05
 5.000E-01 9.72464E-05
 7.500E-01 1.20849E-04
 1.000E+00 1.52548E-04
 1.200E+00 1.83748E-04
 1.400E+00 2.22376E-04
 1.600E+00 2.67255E-04
 1.800E+00 3.22554E-04
 2.000E+00 3.88754E-04
 2.200E+00 4.67341E-04
 2.400E+00 5.60477E-04
 2.600E+00 6.80093E-04
 2.800E+00 5.18200E-04
 3.000E+00 4.96553E-04
 3.200E+00 5.28825E-04
 3.400E+00 5.07907E-04
 3.600E+00 5.11181E-04
 3.800E+00 5.16062E-04
 4.000E+00 5.31050E-04
 4.200E+00 4.66506E-04
 4.400E+00 3.90005E-04
 4.600E+00 3.43894E-04
 4.800E+00 3.06664E-04
 5.000E+00 2.82313E-04
 5.500E+00 2.38862E-04
 6.000E+00 2.07619E-04
 6.500E+00 1.84921E-04
 7.000E+00 1.76975E-04
 7.500E+00 1.80331E-04
 8.000E+00 2.02774E-04
 8.500E+00 2.47272E-04
 9.000E+00 3.21097E-04
 9.500E+00 4.47360E-04
 1.000E+01 6.18840E-04
 1.100E+01 8.07167E-04
 1.200E+01 6.15096E-04
 1.300E+01 4.18545E-04
 1.400E+01 2.93270E-04
 1.500E+01 2.35142E-04
 1.600E+01 1.98744E-04
 1.700E+01 1.72346E-04
 1.800E+01 1.53287E-04
 1.900E+01 1.33740E-04
 2.000E+01 1.23771E-04
 2.100E+01 1.17732E-04
 2.200E+01 1.11143E-04
 2.300E+01 1.09685E-04
 2.400E+01 1.07565E-04
 2.500E+01 1.05430E-04
 2.600E+01 1.05104E-04
 2.700E+01 1.04605E-04
 2.800E+01 1.00919E-04
 2.900E+01 9.70050E-05
 3.000E+01 9.66710E-05
