# n + 208Pb: Gamma-ray intensity - 209Pb: Level  6 --> Level  4 - gamma energy    0.286780
# E-initial  =   2.319000 E-final=   2.032220
# E-threshold= 0.00000E+00
# # energies = 67
#    E         xs
 1.000E-11 0.00000E+00
 2.530E-08 0.00000E+00
 2.000E-07 0.00000E+00
 1.000E-06 9.04658E+01
 1.000E-03 2.58509E-01
 2.000E-03 1.57286E-01
 5.000E-03 9.40605E-02
 1.000E-02 6.06115E-02
 2.000E-02 3.54487E-02
 5.000E-02 1.78481E-02
 1.000E-01 1.14108E-02
 2.000E-01 7.73996E-03
 3.000E-01 6.55360E-03
 4.000E-01 6.09949E-03
 5.000E-01 5.97239E-03
 7.500E-01 6.34590E-03
 1.000E+00 7.18278E-03
 1.200E+00 8.07374E-03
 1.400E+00 9.30664E-03
 1.600E+00 1.04490E-02
 1.800E+00 1.20117E-02
 2.000E+00 1.38247E-02
 2.200E+00 1.58910E-02
 2.400E+00 1.84439E-02
 2.600E+00 2.26693E-02
 2.800E+00 1.98249E-02
 3.000E+00 2.00824E-02
 3.200E+00 2.24704E-02
 3.400E+00 2.41338E-02
 3.600E+00 2.71722E-02
 3.800E+00 2.89173E-02
 4.000E+00 3.23573E-02
 4.200E+00 3.15368E-02
 4.400E+00 2.36569E-02
 4.600E+00 1.81647E-02
 4.800E+00 1.42754E-02
 5.000E+00 1.12447E-02
 5.500E+00 8.23162E-03
 6.000E+00 6.74401E-03
 6.500E+00 6.89976E-03
 7.000E+00 7.86876E-03
 7.500E+00 1.06879E-02
 8.000E+00 1.58504E-02
 8.500E+00 2.49615E-02
 9.000E+00 4.10942E-02
 9.500E+00 6.58250E-02
 1.000E+01 9.08793E-02
 1.100E+01 9.25478E-02
 1.200E+01 6.31467E-02
 1.300E+01 3.89173E-02
 1.400E+01 3.00348E-02
 1.500E+01 2.39775E-02
 1.600E+01 2.01836E-02
 1.700E+01 1.74430E-02
 1.800E+01 1.45083E-02
 1.900E+01 1.32665E-02
 2.000E+01 1.22915E-02
 2.100E+01 1.17234E-02
 2.200E+01 1.11925E-02
 2.300E+01 1.08707E-02
 2.400E+01 1.04740E-02
 2.500E+01 1.02282E-02
 2.600E+01 1.00296E-02
 2.700E+01 9.40042E-03
 2.800E+01 8.81873E-03
 2.900E+01 8.69359E-03
 3.000E+01 8.61986E-03
