# n + 208Pb: Gamma-ray intensity - 209Pb: Level 10 --> Level  3 - gamma energy    0.970910
# E-initial  =   2.538000 E-final=   1.567090
# E-threshold= 0.00000E+00
# # energies = 67
#    E         xs
 1.000E-11 0.00000E+00
 2.530E-08 0.00000E+00
 2.000E-07 0.00000E+00
 1.000E-06 6.88765E+00
 1.000E-03 1.46410E-01
 2.000E-03 7.96537E-02
 5.000E-03 3.55251E-02
 1.000E-02 1.90142E-02
 2.000E-02 1.00532E-02
 5.000E-02 5.80031E-03
 1.000E-01 3.96189E-03
 2.000E-01 2.73567E-03
 3.000E-01 2.32721E-03
 4.000E-01 2.17999E-03
 5.000E-01 2.15361E-03
 7.500E-01 2.34722E-03
 1.000E+00 2.75836E-03
 1.200E+00 3.21414E-03
 1.400E+00 3.82291E-03
 1.600E+00 4.49763E-03
 1.800E+00 5.37302E-03
 2.000E+00 6.42311E-03
 2.200E+00 7.66182E-03
 2.400E+00 9.12091E-03
 2.600E+00 1.11595E-02
 2.800E+00 1.01001E-02
 3.000E+00 1.03415E-02
 3.200E+00 1.13384E-02
 3.400E+00 1.21166E-02
 3.600E+00 1.33693E-02
 3.800E+00 1.41027E-02
 4.000E+00 1.53517E-02
 4.200E+00 1.45956E-02
 4.400E+00 1.18418E-02
 4.600E+00 9.93394E-03
 4.800E+00 8.62612E-03
 5.000E+00 7.55211E-03
 5.500E+00 6.25008E-03
 6.000E+00 5.43439E-03
 6.500E+00 5.12722E-03
 7.000E+00 5.10453E-03
 7.500E+00 5.52728E-03
 8.000E+00 6.26782E-03
 8.500E+00 7.51628E-03
 9.000E+00 9.22558E-03
 9.500E+00 1.13794E-02
 1.000E+01 1.29230E-02
 1.100E+01 1.36628E-02
 1.200E+01 1.15714E-02
 1.300E+01 8.76421E-03
 1.400E+01 7.34678E-03
 1.500E+01 6.34960E-03
 1.600E+01 5.66893E-03
 1.700E+01 5.12735E-03
 1.800E+01 4.39804E-03
 1.900E+01 4.13129E-03
 2.000E+01 3.87571E-03
 2.100E+01 3.81245E-03
 2.200E+01 3.72941E-03
 2.300E+01 3.76983E-03
 2.400E+01 3.78568E-03
 2.500E+01 3.69685E-03
 2.600E+01 3.72575E-03
 2.700E+01 3.56434E-03
 2.800E+01 3.38099E-03
 2.900E+01 3.36947E-03
 3.000E+01 3.36584E-03
