# n + 208Pb: Gamma-ray intensity - 209Pb: Level 10 --> Level  4 - gamma energy    0.505780
# E-initial  =   2.538000 E-final=   2.032220
# E-threshold= 0.00000E+00
# # energies =    67
#    E           xs
 1.00000E-11 0.00000E+00
 2.53000E-08 0.00000E+00
 2.00000E-07 0.00000E+00
 1.00000E-06 8.16578E-02
 1.00000E-03 1.60254E-03
 2.00000E-03 8.74494E-04
 5.00000E-03 3.92740E-04
 1.00000E-02 2.11573E-04
 2.00000E-02 1.12372E-04
 5.00000E-02 6.41243E-05
 1.00000E-01 4.38490E-05
 2.00000E-01 3.03099E-05
 3.00000E-01 2.57593E-05
 4.00000E-01 2.40879E-05
 5.00000E-01 2.37424E-05
 7.50000E-01 2.57045E-05
 1.00000E+00 3.01175E-05
 1.20000E+00 3.50694E-05
 1.40000E+00 4.11246E-05
 1.60000E+00 4.87562E-05
 1.80000E+00 5.79271E-05
 2.00000E+00 6.88134E-05
 2.20000E+00 8.26533E-05
 2.40000E+00 9.87214E-05
 2.60000E+00 1.16589E-04
 2.80000E+00 1.07752E-04
 3.00000E+00 1.09658E-04
 3.20000E+00 1.17705E-04
 3.40000E+00 1.26991E-04
 3.60000E+00 1.39274E-04
 3.80000E+00 1.47181E-04
 4.00000E+00 1.59182E-04
 4.20000E+00 1.53832E-04
 4.40000E+00 1.26218E-04
 4.60000E+00 1.10843E-04
 4.80000E+00 1.03479E-04
 5.00000E+00 9.24495E-05
 5.50000E+00 7.08955E-05
 6.00000E+00 5.51681E-05
 6.50000E+00 4.68615E-05
 7.00000E+00 4.26322E-05
 7.50000E+00 4.20102E-05
 8.00000E+00 4.64283E-05
 8.50000E+00 5.58781E-05
 9.00000E+00 7.27772E-05
 9.50000E+00 1.02602E-04
 1.00000E+01 1.43745E-04
 1.10000E+01 1.97244E-04
 1.20000E+01 1.56504E-04
 1.30000E+01 1.04286E-04
 1.40000E+01 7.66963E-05
 1.50000E+01 6.62994E-05
 1.60000E+01 5.67733E-05
 1.70000E+01 6.10838E-05
 1.80000E+01 5.83535E-05
 1.90000E+01 5.92895E-05
 2.00000E+01 5.74598E-05
 2.10000E+01 5.09462E-05
 2.20000E+01 4.33042E-05
 2.30000E+01 4.04260E-05
 2.40000E+01 3.15904E-05
 2.50000E+01 2.93221E-05
 2.60000E+01 2.49518E-05
 2.70000E+01 2.37500E-05
 2.80000E+01 2.25858E-05
 2.90000E+01 2.10258E-05
 3.00000E+01 2.04137E-05
