# n + 208Pb: Gamma-ray intensity - 209Pb: Level  6 --> Level  4 - gamma energy    0.286780
# E-initial  =   2.319000 E-final=   2.032220
# E-threshold= 0.00000E+00
# # energies = 67
#    E         xs
 1.000E-11 0.00000E+00
 2.530E-08 0.00000E+00
 2.000E-07 0.00000E+00
 1.000E-06 7.14024E+01
 1.000E-03 1.49779E-01
 2.000E-03 1.01251E-01
 5.000E-03 6.67635E-02
 1.000E-02 4.28897E-02
 2.000E-02 2.47001E-02
 5.000E-02 1.18636E-02
 1.000E-01 7.14266E-03
 2.000E-01 4.67834E-03
 3.000E-01 3.94856E-03
 4.000E-01 3.70126E-03
 5.000E-01 3.66758E-03
 7.500E-01 4.06071E-03
 1.000E+00 4.85016E-03
 1.200E+00 5.72131E-03
 1.400E+00 6.90153E-03
 1.600E+00 8.18832E-03
 1.800E+00 9.87159E-03
 2.000E+00 1.18928E-02
 2.200E+00 1.42707E-02
 2.400E+00 1.71141E-02
 2.600E+00 2.10976E-02
 2.800E+00 1.88973E-02
 3.000E+00 1.92062E-02
 3.200E+00 2.11189E-02
 3.400E+00 2.22486E-02
 3.600E+00 2.42790E-02
 3.800E+00 2.49091E-02
 4.000E+00 2.66426E-02
 4.200E+00 2.50756E-02
 4.400E+00 2.35981E-02
 4.600E+00 2.07292E-02
 4.800E+00 1.88643E-02
 5.000E+00 1.72508E-02
 5.500E+00 1.64112E-02
 6.000E+00 1.59460E-02
 6.500E+00 1.77133E-02
 7.000E+00 1.98780E-02
 7.500E+00 2.47882E-02
 8.000E+00 3.18254E-02
 8.500E+00 4.06228E-02
 9.000E+00 5.30639E-02
 9.500E+00 6.62132E-02
 1.000E+01 7.47803E-02
 1.100E+01 7.34492E-02
 1.200E+01 5.98372E-02
 1.300E+01 4.33683E-02
 1.400E+01 3.55184E-02
 1.500E+01 2.98059E-02
 1.600E+01 2.58533E-02
 1.700E+01 2.30094E-02
 1.800E+01 1.92562E-02
 1.900E+01 1.76264E-02
 2.000E+01 1.65386E-02
 2.100E+01 1.57948E-02
 2.200E+01 1.51132E-02
 2.300E+01 1.46110E-02
 2.400E+01 1.41137E-02
 2.500E+01 1.35238E-02
 2.600E+01 1.30650E-02
 2.700E+01 1.23508E-02
 2.800E+01 1.08558E-02
 2.900E+01 1.03652E-02
 3.000E+01 9.97924E-03
