# n + 208Pb: Gamma-ray intensity - 209Pb: Level 10 --> Level  3 - gamma energy    0.970910
# E-initial  =   2.538000 E-final=   1.567090
# E-threshold= 0.00000E+00
# # energies = 67
#    E         xs
 1.000E-11 0.00000E+00
 2.530E-08 0.00000E+00
 2.000E-07 0.00000E+00
 1.000E-06 8.55102E+00
 1.000E-03 1.45564E-01
 2.000E-03 7.98028E-02
 5.000E-03 3.62572E-02
 1.000E-02 1.96615E-02
 2.000E-02 1.04814E-02
 5.000E-02 5.94787E-03
 1.000E-01 4.05419E-03
 2.000E-01 2.81582E-03
 3.000E-01 2.41030E-03
 4.000E-01 2.27010E-03
 5.000E-01 2.25376E-03
 7.500E-01 2.48454E-03
 1.000E+00 2.94874E-03
 1.200E+00 3.45930E-03
 1.400E+00 4.14175E-03
 1.600E+00 4.89437E-03
 1.800E+00 5.87677E-03
 2.000E+00 7.05064E-03
 2.200E+00 8.43341E-03
 2.400E+00 1.00524E-02
 2.600E+00 1.23487E-02
 2.800E+00 1.10675E-02
 3.000E+00 1.12549E-02
 3.200E+00 1.23205E-02
 3.400E+00 1.31319E-02
 3.600E+00 1.45287E-02
 3.800E+00 1.52407E-02
 4.000E+00 1.66130E-02
 4.200E+00 1.57745E-02
 4.400E+00 1.21244E-02
 4.600E+00 1.00525E-02
 4.800E+00 8.58896E-03
 5.000E+00 7.41174E-03
 5.500E+00 5.89719E-03
 6.000E+00 4.88507E-03
 6.500E+00 4.38509E-03
 7.000E+00 4.15029E-03
 7.500E+00 4.32567E-03
 8.000E+00 4.82780E-03
 8.500E+00 5.90852E-03
 9.000E+00 7.70340E-03
 9.500E+00 1.07598E-02
 1.000E+01 1.43892E-02
 1.100E+01 1.89412E-02
 1.200E+01 1.48875E-02
 1.300E+01 9.33282E-03
 1.400E+01 6.76203E-03
 1.500E+01 5.68792E-03
 1.600E+01 4.95595E-03
 1.700E+01 4.36223E-03
 1.800E+01 3.56079E-03
 1.900E+01 3.13896E-03
 2.000E+01 2.96990E-03
 2.100E+01 2.90301E-03
 2.200E+01 2.78458E-03
 2.300E+01 2.79794E-03
 2.400E+01 2.77748E-03
 2.500E+01 2.74746E-03
 2.600E+01 2.78429E-03
 2.700E+01 2.57385E-03
 2.800E+01 2.47821E-03
 2.900E+01 2.41340E-03
 3.000E+01 2.45532E-03
