# n + 208Pb: Gamma-ray intensity - 208Pb: Level 13 --> Level  2 - gamma energy    0.908260
# E-initial  =   4.106000 E-final=   3.197740
# E-threshold= 4.12591E+00
# # energies = 67
#    E         xs
 1.000E-11 0.00000E+00
 2.530E-08 0.00000E+00
 2.000E-07 0.00000E+00
 1.000E-06 0.00000E+00
 1.000E-03 0.00000E+00
 2.000E-03 0.00000E+00
 5.000E-03 0.00000E+00
 1.000E-02 0.00000E+00
 2.000E-02 0.00000E+00
 5.000E-02 0.00000E+00
 1.000E-01 0.00000E+00
 2.000E-01 0.00000E+00
 3.000E-01 0.00000E+00
 4.000E-01 0.00000E+00
 5.000E-01 0.00000E+00
 7.500E-01 0.00000E+00
 1.000E+00 0.00000E+00
 1.200E+00 0.00000E+00
 1.400E+00 0.00000E+00
 1.600E+00 0.00000E+00
 1.800E+00 0.00000E+00
 2.000E+00 0.00000E+00
 2.200E+00 0.00000E+00
 2.400E+00 0.00000E+00
 2.600E+00 0.00000E+00
 2.800E+00 0.00000E+00
 3.000E+00 0.00000E+00
 3.200E+00 0.00000E+00
 3.400E+00 0.00000E+00
 3.600E+00 0.00000E+00
 3.800E+00 0.00000E+00
 4.000E+00 0.00000E+00
 4.200E+00 1.97449E+01
 4.400E+00 3.69178E+01
 4.600E+00 4.38062E+01
 4.800E+00 4.50022E+01
 5.000E+00 4.35141E+01
 5.500E+00 3.73040E+01
 6.000E+00 3.23812E+01
 6.500E+00 2.88650E+01
 7.000E+00 2.64039E+01
 7.500E+00 2.48743E+01
 8.000E+00 2.23507E+01
 8.500E+00 1.87518E+01
 9.000E+00 1.50182E+01
 9.500E+00 1.16632E+01
 1.000E+01 8.72382E+00
 1.100E+01 4.93611E+00
 1.200E+01 3.15909E+00
 1.300E+01 2.29589E+00
 1.400E+01 1.89371E+00
 1.500E+01 1.65637E+00
 1.600E+01 1.51140E+00
 1.700E+01 1.43965E+00
 1.800E+01 1.36582E+00
 1.900E+01 1.28525E+00
 2.000E+01 1.24805E+00
 2.100E+01 1.18752E+00
 2.200E+01 1.17779E+00
 2.300E+01 1.11672E+00
 2.400E+01 1.08527E+00
 2.500E+01 1.05557E+00
 2.600E+01 9.95346E-01
 2.700E+01 9.68768E-01
 2.800E+01 9.38103E-01
 2.900E+01 9.19266E-01
 3.000E+01 8.76270E-01
