# n + 208Pb: Gamma-ray intensity - 209Pb: Level  6 --> Level  4 - gamma energy    0.286780
# E-initial  =   2.319000 E-final=   2.032220
# E-threshold= 0.00000E+00
# # energies = 67
#    E         xs
 1.000E-11 0.00000E+00
 2.530E-08 0.00000E+00
 2.000E-07 0.00000E+00
 1.000E-06 6.96137E+01
 1.000E-03 1.51313E-01
 2.000E-03 1.00160E-01
 5.000E-03 6.53821E-02
 1.000E-02 4.21767E-02
 2.000E-02 2.43971E-02
 5.000E-02 1.17439E-02
 1.000E-01 7.06862E-03
 2.000E-01 4.62285E-03
 3.000E-01 3.89397E-03
 4.000E-01 3.64128E-03
 5.000E-01 3.59875E-03
 7.500E-01 3.95507E-03
 1.000E+00 4.69056E-03
 1.200E+00 5.50298E-03
 1.400E+00 6.59928E-03
 1.600E+00 7.79307E-03
 1.800E+00 9.35747E-03
 2.000E+00 1.12244E-02
 2.200E+00 1.34155E-02
 2.400E+00 1.59934E-02
 2.600E+00 1.96589E-02
 2.800E+00 1.75364E-02
 3.000E+00 1.76872E-02
 3.200E+00 1.93453E-02
 3.400E+00 2.03361E-02
 3.600E+00 2.21714E-02
 3.800E+00 2.26342E-02
 4.000E+00 2.42388E-02
 4.200E+00 2.26700E-02
 4.400E+00 1.76112E-02
 4.600E+00 1.47940E-02
 4.800E+00 1.28487E-02
 5.000E+00 1.10665E-02
 5.500E+00 9.49335E-03
 6.000E+00 8.42868E-03
 6.500E+00 8.92914E-03
 7.000E+00 9.93800E-03
 7.500E+00 1.29005E-02
 8.000E+00 1.79934E-02
 8.500E+00 2.64698E-02
 9.000E+00 4.13079E-02
 9.500E+00 6.29609E-02
 1.000E+01 8.29607E-02
 1.100E+01 8.24153E-02
 1.200E+01 5.71333E-02
 1.300E+01 3.57138E-02
 1.400E+01 2.78868E-02
 1.500E+01 2.24504E-02
 1.600E+01 1.89964E-02
 1.700E+01 1.65854E-02
 1.800E+01 1.37811E-02
 1.900E+01 1.26967E-02
 2.000E+01 1.18966E-02
 2.100E+01 1.11396E-02
 2.200E+01 1.04207E-02
 2.300E+01 1.00650E-02
 2.400E+01 9.74930E-03
 2.500E+01 9.45570E-03
 2.600E+01 9.25419E-03
 2.700E+01 8.63636E-03
 2.800E+01 8.04400E-03
 2.900E+01 7.90957E-03
 3.000E+01 7.84426E-03
