# n + 208Pb: Gamma-ray intensity - 209Pb: Level  5 --> Level  4 - gamma energy    0.117210
# E-initial  =   2.149430 E-final=   2.032220
# E-threshold= 0.00000E+00
# # energies = 67
#    E         xs
 1.000E-11 0.00000E+00
 2.530E-08 0.00000E+00
 2.000E-07 0.00000E+00
 1.000E-06 1.22220E+02
 1.000E-03 3.66815E-01
 2.000E-03 2.09476E-01
 5.000E-03 1.05235E-01
 1.000E-02 6.03927E-02
 2.000E-02 3.30721E-02
 5.000E-02 1.54424E-02
 1.000E-01 9.29973E-03
 2.000E-01 6.06452E-03
 3.000E-01 5.06696E-03
 4.000E-01 4.68658E-03
 5.000E-01 4.57099E-03
 7.500E-01 4.83092E-03
 1.000E+00 5.44773E-03
 1.200E+00 6.10637E-03
 1.400E+00 7.02746E-03
 1.600E+00 7.86305E-03
 1.800E+00 9.03383E-03
 2.000E+00 1.03884E-02
 2.200E+00 1.19721E-02
 2.400E+00 1.39856E-02
 2.600E+00 1.71382E-02
 2.800E+00 1.63608E-02
 3.000E+00 1.69508E-02
 3.200E+00 1.91529E-02
 3.400E+00 2.07516E-02
 3.600E+00 2.38198E-02
 3.800E+00 2.57389E-02
 4.000E+00 2.92306E-02
 4.200E+00 2.93984E-02
 4.400E+00 2.20740E-02
 4.600E+00 1.66368E-02
 4.800E+00 1.31485E-02
 5.000E+00 1.02361E-02
 5.500E+00 7.57539E-03
 6.000E+00 6.35956E-03
 6.500E+00 6.67939E-03
 7.000E+00 7.82460E-03
 7.500E+00 1.08132E-02
 8.000E+00 1.61573E-02
 8.500E+00 2.57455E-02
 9.000E+00 4.25469E-02
 9.500E+00 6.82427E-02
 1.000E+01 9.41857E-02
 1.100E+01 9.50719E-02
 1.200E+01 6.39931E-02
 1.300E+01 3.96467E-02
 1.400E+01 2.93327E-02
 1.500E+01 2.37650E-02
 1.600E+01 2.01742E-02
 1.700E+01 1.75231E-02
 1.800E+01 1.47146E-02
 1.900E+01 1.36691E-02
 2.000E+01 1.26725E-02
 2.100E+01 1.20691E-02
 2.200E+01 1.15036E-02
 2.300E+01 1.11507E-02
 2.400E+01 1.07249E-02
 2.500E+01 1.04517E-02
 2.600E+01 1.02286E-02
 2.700E+01 9.52824E-03
 2.800E+01 9.05209E-03
 2.900E+01 8.93113E-03
 3.000E+01 8.85741E-03
