# n + 208Pb: Gamma-ray intensity - 209Pb: Level  9 --> Level  1 - gamma energy    1.712200
# E-initial  =   2.491000 E-final=   0.778800
# E-threshold= 0.00000E+00
# # energies = 67
#    E         xs
 1.000E-11 0.00000E+00
 2.530E-08 0.00000E+00
 2.000E-07 0.00000E+00
 1.000E-06 1.02972E-04
 1.000E-03 5.87399E-05
 2.000E-03 8.06819E-05
 5.000E-03 1.07963E-04
 1.000E-02 9.07515E-05
 2.000E-02 6.00441E-05
 5.000E-02 1.10403E-04
 1.000E-01 1.26809E-04
 2.000E-01 1.09365E-04
 3.000E-01 9.99183E-05
 4.000E-01 9.76291E-05
 5.000E-01 1.00507E-04
 7.500E-01 1.17514E-04
 1.000E+00 1.40022E-04
 1.200E+00 1.61203E-04
 1.400E+00 1.87241E-04
 1.600E+00 2.15188E-04
 1.800E+00 2.49798E-04
 2.000E+00 2.90724E-04
 2.200E+00 3.38618E-04
 2.400E+00 3.95293E-04
 2.600E+00 4.82888E-04
 2.800E+00 3.72742E-04
 3.000E+00 3.64987E-04
 3.200E+00 4.00522E-04
 3.400E+00 3.89657E-04
 3.600E+00 4.04167E-04
 3.800E+00 4.17671E-04
 4.000E+00 4.43354E-04
 4.200E+00 3.98885E-04
 4.400E+00 3.25008E-04
 4.600E+00 2.61026E-04
 4.800E+00 2.08051E-04
 5.000E+00 1.71472E-04
 5.500E+00 1.15558E-04
 6.000E+00 8.68198E-05
 6.500E+00 7.11946E-05
 7.000E+00 6.78946E-05
 7.500E+00 7.41744E-05
 8.000E+00 9.52208E-05
 8.500E+00 1.36237E-04
 9.000E+00 2.08895E-04
 9.500E+00 3.38480E-04
 1.000E+01 5.35578E-04
 1.100E+01 8.02776E-04
 1.200E+01 6.05559E-04
 1.300E+01 4.04194E-04
 1.400E+01 2.90249E-04
 1.500E+01 2.35235E-04
 1.600E+01 2.00152E-04
 1.700E+01 1.70556E-04
 1.800E+01 1.48813E-04
 1.900E+01 1.33197E-04
 2.000E+01 1.21654E-04
 2.100E+01 1.18404E-04
 2.200E+01 1.13593E-04
 2.300E+01 1.13420E-04
 2.400E+01 1.09750E-04
 2.500E+01 1.09634E-04
 2.600E+01 1.10117E-04
 2.700E+01 1.08714E-04
 2.800E+01 1.05605E-04
 2.900E+01 1.04784E-04
 3.000E+01 1.05237E-04
