# n + 208Pb: Gamma-ray intensity - 209Pb: Level  5 --> Level  4 - gamma energy    0.117210
# E-initial  =   2.149430 E-final=   2.032220
# E-threshold= 0.00000E+00
# # energies = 67
#    E         xs
 1.000E-11 0.00000E+00
 2.530E-08 0.00000E+00
 2.000E-07 0.00000E+00
 1.000E-06 7.10195E+01
 1.000E-03 1.59155E-01
 2.000E-03 9.40746E-02
 5.000E-03 4.93382E-02
 1.000E-02 2.84340E-02
 2.000E-02 1.55088E-02
 5.000E-02 7.00713E-03
 1.000E-01 4.04800E-03
 2.000E-01 2.57664E-03
 3.000E-01 2.14815E-03
 4.000E-01 1.99701E-03
 5.000E-01 1.96526E-03
 7.500E-01 2.14405E-03
 1.000E+00 2.52973E-03
 1.200E+00 2.95778E-03
 1.400E+00 3.53518E-03
 1.600E+00 4.16386E-03
 1.800E+00 4.98947E-03
 2.000E+00 5.97373E-03
 2.200E+00 7.12985E-03
 2.400E+00 8.48533E-03
 2.600E+00 1.04163E-02
 2.800E+00 1.03033E-02
 3.000E+00 1.06967E-02
 3.200E+00 1.18017E-02
 3.400E+00 1.25237E-02
 3.600E+00 1.38801E-02
 3.800E+00 1.44519E-02
 4.000E+00 1.56845E-02
 4.200E+00 1.51674E-02
 4.400E+00 1.20388E-02
 4.600E+00 9.96229E-03
 4.800E+00 8.75436E-03
 5.000E+00 7.48209E-03
 5.500E+00 6.48053E-03
 6.000E+00 5.92046E-03
 6.500E+00 6.43605E-03
 7.000E+00 7.42373E-03
 7.500E+00 9.88124E-03
 8.000E+00 1.40115E-02
 8.500E+00 2.11433E-02
 9.000E+00 3.33480E-02
 9.500E+00 5.10899E-02
 1.000E+01 6.76012E-02
 1.100E+01 6.66749E-02
 1.200E+01 4.54746E-02
 1.300E+01 2.88262E-02
 1.400E+01 2.16426E-02
 1.500E+01 1.76347E-02
 1.600E+01 1.50224E-02
 1.700E+01 1.31647E-02
 1.800E+01 1.11232E-02
 1.900E+01 1.04318E-02
 2.000E+01 9.77234E-03
 2.100E+01 9.12949E-03
 2.200E+01 8.52070E-03
 2.300E+01 8.21211E-03
 2.400E+01 7.93684E-03
 2.500E+01 7.68080E-03
 2.600E+01 7.50005E-03
 2.700E+01 6.98414E-03
 2.800E+01 6.61332E-03
 2.900E+01 6.52010E-03
 3.000E+01 6.46472E-03
