# n + 208Pb: Gamma-ray intensity - 209Pb: Level  9 --> Level  3 - gamma energy    0.923910
# E-initial  =   2.491000 E-final=   1.567090
# E-threshold= 0.00000E+00
# # energies =    67
#    E           xs
 1.00000E-11 0.00000E+00
 2.53000E-08 0.00000E+00
 2.00000E-07 0.00000E+00
 1.00000E-06 5.91207E-06
 1.00000E-03 1.39660E-05
 2.00000E-03 2.35364E-05
 5.00000E-03 3.04685E-05
 1.00000E-02 2.39831E-05
 2.00000E-02 1.51883E-05
 5.00000E-02 3.81370E-05
 1.00000E-01 4.18512E-05
 2.00000E-01 3.55531E-05
 3.00000E-01 3.27658E-05
 4.00000E-01 3.26035E-05
 5.00000E-01 3.42801E-05
 7.50000E-01 4.22319E-05
 1.00000E+00 5.28220E-05
 1.20000E+00 6.32722E-05
 1.40000E+00 7.55035E-05
 1.60000E+00 9.04249E-05
 1.80000E+00 1.08237E-04
 2.00000E+00 1.29376E-04
 2.20000E+00 1.55711E-04
 2.40000E+00 1.85532E-04
 2.60000E+00 2.20748E-04
 2.80000E+00 1.69534E-04
 3.00000E+00 1.61896E-04
 3.20000E+00 1.70054E-04
 3.40000E+00 1.64760E-04
 3.60000E+00 1.64513E-04
 3.80000E+00 1.66458E-04
 4.00000E+00 1.70227E-04
 4.20000E+00 1.54088E-04
 4.40000E+00 1.31673E-04
 4.60000E+00 1.17811E-04
 4.80000E+00 1.11786E-04
 5.00000E+00 1.03096E-04
 5.50000E+00 8.65409E-05
 6.00000E+00 7.23374E-05
 6.50000E+00 6.29160E-05
 7.00000E+00 5.72840E-05
 7.50000E+00 5.70231E-05
 8.00000E+00 6.26848E-05
 8.50000E+00 7.53949E-05
 9.00000E+00 1.00305E-04
 9.50000E+00 1.42113E-04
 1.00000E+01 1.99657E-04
 1.10000E+01 2.76122E-04
 1.20000E+01 2.16791E-04
 1.30000E+01 1.43127E-04
 1.40000E+01 1.03291E-04
 1.50000E+01 8.89254E-05
 1.60000E+01 7.48069E-05
 1.70000E+01 7.58512E-05
 1.80000E+01 7.12526E-05
 1.90000E+01 7.08337E-05
 2.00000E+01 6.95736E-05
 2.10000E+01 6.18950E-05
 2.20000E+01 5.32493E-05
 2.30000E+01 4.94437E-05
 2.40000E+01 3.99830E-05
 2.50000E+01 3.72014E-05
 2.60000E+01 3.23654E-05
 2.70000E+01 3.08037E-05
 2.80000E+01 3.03643E-05
 2.90000E+01 2.85521E-05
 3.00000E+01 2.76935E-05
