# n + 208Pb: Gamma-ray intensity - 209Pb: Level  9 --> Level  1 - gamma energy    1.712200
# E-initial  =   2.491000 E-final=   0.778800
# E-threshold= 0.00000E+00
# # energies = 67
#    E         xs
 1.000E-11 0.00000E+00
 2.530E-08 0.00000E+00
 2.000E-07 0.00000E+00
 1.000E-06 3.13642E-05
 1.000E-03 4.91524E-05
 2.000E-03 7.84730E-05
 5.000E-03 9.93201E-05
 1.000E-02 7.77779E-05
 2.000E-02 4.91813E-05
 5.000E-02 1.07115E-04
 1.000E-01 1.15871E-04
 2.000E-01 9.91640E-05
 3.000E-01 9.22147E-05
 4.000E-01 9.23346E-05
 5.000E-01 9.74707E-05
 7.500E-01 1.21102E-04
 1.000E+00 1.53004E-04
 1.200E+00 1.84955E-04
 1.400E+00 2.22288E-04
 1.600E+00 2.68354E-04
 1.800E+00 3.23608E-04
 2.000E+00 3.89404E-04
 2.200E+00 4.72884E-04
 2.400E+00 5.66346E-04
 2.600E+00 6.76792E-04
 2.800E+00 5.22685E-04
 3.000E+00 5.00005E-04
 3.200E+00 5.26280E-04
 3.400E+00 5.10663E-04
 3.600E+00 5.12644E-04
 3.800E+00 5.17978E-04
 4.000E+00 5.31620E-04
 4.200E+00 4.81350E-04
 4.400E+00 4.11641E-04
 4.600E+00 3.69011E-04
 4.800E+00 3.50927E-04
 5.000E+00 3.24467E-04
 5.500E+00 2.79458E-04
 6.000E+00 2.40280E-04
 6.500E+00 2.15814E-04
 7.000E+00 2.01248E-04
 7.500E+00 2.03294E-04
 8.000E+00 2.24257E-04
 8.500E+00 2.64500E-04
 9.000E+00 3.42417E-04
 9.500E+00 4.71323E-04
 1.000E+01 6.37405E-04
 1.100E+01 8.41343E-04
 1.200E+01 6.53796E-04
 1.300E+01 4.31893E-04
 1.400E+01 3.19167E-04
 1.500E+01 2.76950E-04
 1.600E+01 2.29644E-04
 1.700E+01 2.18332E-04
 1.800E+01 1.95519E-04
 1.900E+01 2.01596E-04
 2.000E+01 2.02492E-04
 2.100E+01 1.74532E-04
 2.200E+01 1.69286E-04
 2.300E+01 1.57759E-04
 2.400E+01 1.36836E-04
 2.500E+01 1.26242E-04
 2.600E+01 1.05680E-04
 2.700E+01 9.81006E-05
 2.800E+01 8.99125E-05
 2.900E+01 8.31197E-05
 3.000E+01 7.90278E-05
