# n + 208Pb: Gamma-ray intensity - 208Pb: Level  4 --> Level  3 - gamma energy    0.233330
# E-initial  =   3.708440 E-final=   3.475110
# E-threshold= 3.72643E+00
# # energies = 67
#    E         xs
 1.000E-11 0.00000E+00
 2.530E-08 0.00000E+00
 2.000E-07 0.00000E+00
 1.000E-06 0.00000E+00
 1.000E-03 0.00000E+00
 2.000E-03 0.00000E+00
 5.000E-03 0.00000E+00
 1.000E-02 0.00000E+00
 2.000E-02 0.00000E+00
 5.000E-02 0.00000E+00
 1.000E-01 0.00000E+00
 2.000E-01 0.00000E+00
 3.000E-01 0.00000E+00
 4.000E-01 0.00000E+00
 5.000E-01 0.00000E+00
 7.500E-01 0.00000E+00
 1.000E+00 0.00000E+00
 1.200E+00 0.00000E+00
 1.400E+00 0.00000E+00
 1.600E+00 0.00000E+00
 1.800E+00 0.00000E+00
 2.000E+00 0.00000E+00
 2.200E+00 0.00000E+00
 2.400E+00 0.00000E+00
 2.600E+00 0.00000E+00
 2.800E+00 0.00000E+00
 3.000E+00 0.00000E+00
 3.200E+00 0.00000E+00
 3.400E+00 0.00000E+00
 3.600E+00 0.00000E+00
 3.800E+00 5.50749E-01
 4.000E+00 1.37888E+00
 4.200E+00 2.02460E+00
 4.400E+00 2.37279E+00
 4.600E+00 2.56319E+00
 4.800E+00 2.66844E+00
 5.000E+00 2.74212E+00
 5.500E+00 2.90340E+00
 6.000E+00 3.07102E+00
 6.500E+00 3.29065E+00
 7.000E+00 3.57987E+00
 7.500E+00 3.92768E+00
 8.000E+00 4.21920E+00
 8.500E+00 4.31991E+00
 9.000E+00 4.14089E+00
 9.500E+00 3.74026E+00
 1.000E+01 3.22078E+00
 1.100E+01 2.16968E+00
 1.200E+01 1.42916E+00
 1.300E+01 1.03881E+00
 1.400E+01 8.36510E-01
 1.500E+01 7.36768E-01
 1.600E+01 6.81904E-01
 1.700E+01 6.51526E-01
 1.800E+01 6.15591E-01
 1.900E+01 5.90441E-01
 2.000E+01 5.65553E-01
 2.100E+01 5.43287E-01
 2.200E+01 5.14958E-01
 2.300E+01 4.97435E-01
 2.400E+01 4.71902E-01
 2.500E+01 4.52708E-01
 2.600E+01 4.29298E-01
 2.700E+01 4.14585E-01
 2.800E+01 4.01309E-01
 2.900E+01 3.82191E-01
 3.000E+01 3.68959E-01
