# n + 208Pb: Gamma-ray intensity - 208Pb: Level 10 --> Level  3 - gamma energy    0.576050
# E-initial  =   4.051130 E-final=   3.475080
# E-threshold= 4.07078E+00
# # energies = 67
#    E         xs
 1.000E-11 0.00000E+00
 2.530E-08 0.00000E+00
 2.000E-07 0.00000E+00
 1.000E-06 0.00000E+00
 1.000E-03 0.00000E+00
 2.000E-03 0.00000E+00
 5.000E-03 0.00000E+00
 1.000E-02 0.00000E+00
 2.000E-02 0.00000E+00
 5.000E-02 0.00000E+00
 1.000E-01 0.00000E+00
 2.000E-01 0.00000E+00
 3.000E-01 0.00000E+00
 4.000E-01 0.00000E+00
 5.000E-01 0.00000E+00
 7.500E-01 0.00000E+00
 1.000E+00 0.00000E+00
 1.200E+00 0.00000E+00
 1.400E+00 0.00000E+00
 1.600E+00 0.00000E+00
 1.800E+00 0.00000E+00
 2.000E+00 0.00000E+00
 2.200E+00 0.00000E+00
 2.400E+00 0.00000E+00
 2.600E+00 0.00000E+00
 2.800E+00 0.00000E+00
 3.000E+00 0.00000E+00
 3.200E+00 0.00000E+00
 3.400E+00 0.00000E+00
 3.600E+00 0.00000E+00
 3.800E+00 0.00000E+00
 4.000E+00 0.00000E+00
 4.200E+00 8.85765E+00
 4.400E+00 1.39928E+01
 4.600E+00 1.60116E+01
 4.800E+00 1.64645E+01
 5.000E+00 1.59868E+01
 5.500E+00 1.40539E+01
 6.000E+00 1.25879E+01
 6.500E+00 1.15175E+01
 7.000E+00 1.07665E+01
 7.500E+00 1.02464E+01
 8.000E+00 9.16372E+00
 8.500E+00 7.56737E+00
 9.000E+00 6.02511E+00
 9.500E+00 4.56881E+00
 1.000E+01 3.41906E+00
 1.100E+01 1.93517E+00
 1.200E+01 1.23944E+00
 1.300E+01 9.11497E-01
 1.400E+01 7.66668E-01
 1.500E+01 6.84048E-01
 1.600E+01 6.26063E-01
 1.700E+01 5.93594E-01
 1.800E+01 5.52443E-01
 1.900E+01 5.19253E-01
 2.000E+01 4.95015E-01
 2.100E+01 4.73487E-01
 2.200E+01 4.45030E-01
 2.300E+01 4.26668E-01
 2.400E+01 4.07791E-01
 2.500E+01 3.80775E-01
 2.600E+01 3.61767E-01
 2.700E+01 3.50439E-01
 2.800E+01 3.40439E-01
 2.900E+01 3.27858E-01
 3.000E+01 3.18057E-01
