# n + 208Pb: Gamma-ray intensity - 209Pb: Level  8 --> Level  3 - gamma energy    0.895910
# E-initial  =   2.463000 E-final=   1.567090
# E-threshold= 0.00000E+00
# # energies = 67
#    E         xs
 1.000E-11 0.00000E+00
 2.530E-08 0.00000E+00
 2.000E-07 0.00000E+00
 1.000E-06 5.06312E-02
 1.000E-03 7.51986E-03
 2.000E-03 7.41045E-03
 5.000E-03 7.00236E-03
 1.000E-02 5.04393E-03
 2.000E-02 3.05329E-03
 5.000E-02 1.53586E-03
 1.000E-01 1.01477E-03
 2.000E-01 8.16127E-04
 3.000E-01 7.57145E-04
 4.000E-01 7.36593E-04
 5.000E-01 7.40987E-04
 7.500E-01 8.21366E-04
 1.000E+00 9.75021E-04
 1.200E+00 1.14861E-03
 1.400E+00 1.35392E-03
 1.600E+00 1.61664E-03
 1.800E+00 1.93336E-03
 2.000E+00 2.31085E-03
 2.200E+00 2.80253E-03
 2.400E+00 3.34494E-03
 2.600E+00 3.97248E-03
 2.800E+00 3.11832E-03
 3.000E+00 3.02295E-03
 3.200E+00 3.21145E-03
 3.400E+00 3.31781E-03
 3.600E+00 3.46639E-03
 3.800E+00 3.49591E-03
 4.000E+00 3.62978E-03
 4.200E+00 3.32624E-03
 4.400E+00 2.68138E-03
 4.600E+00 2.30889E-03
 4.800E+00 2.16617E-03
 5.000E+00 1.96491E-03
 5.500E+00 1.50275E-03
 6.000E+00 1.23245E-03
 6.500E+00 1.10894E-03
 7.000E+00 1.11106E-03
 7.500E+00 1.15195E-03
 8.000E+00 1.36050E-03
 8.500E+00 1.71722E-03
 9.000E+00 2.25989E-03
 9.500E+00 3.22260E-03
 1.000E+01 4.52757E-03
 1.100E+01 6.20107E-03
 1.200E+01 4.71645E-03
 1.300E+01 3.15416E-03
 1.400E+01 2.31883E-03
 1.500E+01 1.89179E-03
 1.600E+01 1.56858E-03
 1.700E+01 1.51934E-03
 1.800E+01 1.36915E-03
 1.900E+01 1.40013E-03
 2.000E+01 1.35802E-03
 2.100E+01 1.17197E-03
 2.200E+01 1.13839E-03
 2.300E+01 1.07902E-03
 2.400E+01 9.42609E-04
 2.500E+01 8.74807E-04
 2.600E+01 7.38074E-04
 2.700E+01 6.87974E-04
 2.800E+01 6.18574E-04
 2.900E+01 5.57059E-04
 3.000E+01 5.29326E-04
