# n + 208Pb: Gamma-ray intensity - 208Pb: Level 13 --> Level  2 - gamma energy    0.908260
# E-initial  =   4.106000 E-final=   3.197740
# E-threshold= 4.12591E+00
# # energies = 67
#    E         xs
 1.000E-11 0.00000E+00
 2.530E-08 0.00000E+00
 2.000E-07 0.00000E+00
 1.000E-06 0.00000E+00
 1.000E-03 0.00000E+00
 2.000E-03 0.00000E+00
 5.000E-03 0.00000E+00
 1.000E-02 0.00000E+00
 2.000E-02 0.00000E+00
 5.000E-02 0.00000E+00
 1.000E-01 0.00000E+00
 2.000E-01 0.00000E+00
 3.000E-01 0.00000E+00
 4.000E-01 0.00000E+00
 5.000E-01 0.00000E+00
 7.500E-01 0.00000E+00
 1.000E+00 0.00000E+00
 1.200E+00 0.00000E+00
 1.400E+00 0.00000E+00
 1.600E+00 0.00000E+00
 1.800E+00 0.00000E+00
 2.000E+00 0.00000E+00
 2.200E+00 0.00000E+00
 2.400E+00 0.00000E+00
 2.600E+00 0.00000E+00
 2.800E+00 0.00000E+00
 3.000E+00 0.00000E+00
 3.200E+00 0.00000E+00
 3.400E+00 0.00000E+00
 3.600E+00 0.00000E+00
 3.800E+00 0.00000E+00
 4.000E+00 0.00000E+00
 4.200E+00 1.97445E+01
 4.400E+00 3.69258E+01
 4.600E+00 4.38780E+01
 4.800E+00 4.52490E+01
 5.000E+00 4.40673E+01
 5.500E+00 3.89478E+01
 6.000E+00 3.50150E+01
 6.500E+00 3.21331E+01
 7.000E+00 2.99640E+01
 7.500E+00 2.84466E+01
 8.000E+00 2.54404E+01
 8.500E+00 2.12408E+01
 9.000E+00 1.69357E+01
 9.500E+00 1.31665E+01
 1.000E+01 9.81430E+00
 1.100E+01 5.57818E+00
 1.200E+01 3.63416E+00
 1.300E+01 2.67499E+00
 1.400E+01 2.22143E+00
 1.500E+01 1.96162E+00
 1.600E+01 1.79936E+00
 1.700E+01 1.71124E+00
 1.800E+01 1.61971E+00
 1.900E+01 1.52658E+00
 2.000E+01 1.47627E+00
 2.100E+01 1.39707E+00
 2.200E+01 1.37431E+00
 2.300E+01 1.29614E+00
 2.400E+01 1.24852E+00
 2.500E+01 1.21917E+00
 2.600E+01 1.13988E+00
 2.700E+01 1.10916E+00
 2.800E+01 1.06664E+00
 2.900E+01 1.05312E+00
 3.000E+01 9.89569E-01
