# n + 208Pb: Gamma-ray intensity - 209Pb: Level  4 --> Level  3 - gamma energy    0.465130
# E-initial  =   2.032220 E-final=   1.567090
# E-threshold= 0.00000E+00
# # energies = 67
#    E         xs
 1.000E-11 0.00000E+00
 2.530E-08 0.00000E+00
 2.000E-07 0.00000E+00
 1.000E-06 2.01305E+02
 1.000E-03 6.82684E-01
 2.000E-03 3.98276E-01
 5.000E-03 2.09191E-01
 1.000E-02 1.22488E-01
 2.000E-02 6.76901E-02
 5.000E-02 3.09870E-02
 1.000E-01 1.80394E-02
 2.000E-01 1.15419E-02
 3.000E-01 9.63506E-03
 4.000E-01 8.95739E-03
 5.000E-01 8.81954E-03
 7.500E-01 9.58822E-03
 1.000E+00 1.13364E-02
 1.200E+00 1.32957E-02
 1.400E+00 1.56836E-02
 1.600E+00 1.87196E-02
 1.800E+00 2.23609E-02
 2.000E+00 2.66738E-02
 2.200E+00 3.22058E-02
 2.400E+00 3.87444E-02
 2.600E+00 4.57660E-02
 2.800E+00 4.51906E-02
 3.000E+00 4.62459E-02
 3.200E+00 5.04630E-02
 3.400E+00 5.35622E-02
 3.600E+00 5.86946E-02
 3.800E+00 6.10772E-02
 4.000E+00 6.57542E-02
 4.200E+00 6.32392E-02
 4.400E+00 5.09637E-02
 4.600E+00 4.46613E-02
 4.800E+00 4.57213E-02
 5.000E+00 4.22813E-02
 5.500E+00 3.53842E-02
 6.000E+00 3.22158E-02
 6.500E+00 3.40293E-02
 7.000E+00 4.07457E-02
 7.500E+00 5.31314E-02
 8.000E+00 7.73001E-02
 8.500E+00 1.18894E-01
 9.000E+00 1.84171E-01
 9.500E+00 2.70154E-01
 1.000E+01 3.38814E-01
 1.100E+01 3.08232E-01
 1.200E+01 2.06046E-01
 1.300E+01 1.40603E-01
 1.400E+01 1.06999E-01
 1.500E+01 8.64524E-02
 1.600E+01 7.30688E-02
 1.700E+01 6.64507E-02
 1.800E+01 6.00345E-02
 1.900E+01 5.77660E-02
 2.000E+01 5.43053E-02
 2.100E+01 4.89117E-02
 2.200E+01 4.62847E-02
 2.300E+01 4.40462E-02
 2.400E+01 4.08897E-02
 2.500E+01 3.88337E-02
 2.600E+01 3.59042E-02
 2.700E+01 3.43302E-02
 2.800E+01 3.22398E-02
 2.900E+01 3.07145E-02
 3.000E+01 2.97175E-02
