# n + 208Pb: Gamma-ray intensity - 209Pb: Level  9 --> Level  1 - gamma energy    1.712200
# E-initial  =   2.491000 E-final=   0.778800
# E-threshold= 0.00000E+00
# # energies = 67
#    E         xs
 1.000E-11 0.00000E+00
 2.530E-08 0.00000E+00
 2.000E-07 0.00000E+00
 1.000E-06 1.41719E-05
 1.000E-03 3.82596E-05
 2.000E-03 6.44507E-05
 5.000E-03 7.98188E-05
 1.000E-02 6.13665E-05
 2.000E-02 3.83834E-05
 5.000E-02 1.03558E-04
 1.000E-01 1.13123E-04
 2.000E-01 9.57455E-05
 3.000E-01 8.80532E-05
 4.000E-01 8.76016E-05
 5.000E-01 9.22957E-05
 7.500E-01 1.14370E-04
 1.000E+00 1.43922E-04
 1.200E+00 1.72879E-04
 1.400E+00 2.08556E-04
 1.600E+00 2.50112E-04
 1.800E+00 3.01021E-04
 2.000E+00 3.62072E-04
 2.200E+00 4.34616E-04
 2.400E+00 5.20963E-04
 2.600E+00 6.30583E-04
 2.800E+00 4.83988E-04
 3.000E+00 4.65444E-04
 3.200E+00 4.96578E-04
 3.400E+00 4.76923E-04
 3.600E+00 4.78023E-04
 3.800E+00 4.84309E-04
 4.000E+00 4.96989E-04
 4.200E+00 4.36676E-04
 4.400E+00 3.90399E-04
 4.600E+00 3.50877E-04
 4.800E+00 3.17142E-04
 5.000E+00 2.94750E-04
 5.500E+00 2.59056E-04
 6.000E+00 2.34841E-04
 6.500E+00 2.20054E-04
 7.000E+00 2.21115E-04
 7.500E+00 2.35246E-04
 8.000E+00 2.67486E-04
 8.500E+00 3.20720E-04
 9.000E+00 3.91081E-04
 9.500E+00 4.78030E-04
 1.000E+01 5.58667E-04
 1.100E+01 5.94903E-04
 1.200E+01 5.00461E-04
 1.300E+01 4.00624E-04
 1.400E+01 3.24822E-04
 1.500E+01 2.70162E-04
 1.600E+01 2.33640E-04
 1.700E+01 2.06942E-04
 1.800E+01 1.87742E-04
 1.900E+01 1.74261E-04
 2.000E+01 1.61531E-04
 2.100E+01 1.55214E-04
 2.200E+01 1.49236E-04
 2.300E+01 1.47474E-04
 2.400E+01 1.45351E-04
 2.500E+01 1.40430E-04
 2.600E+01 1.39188E-04
 2.700E+01 1.38057E-04
 2.800E+01 1.31933E-04
 2.900E+01 1.29855E-04
 3.000E+01 1.27780E-04
