# n + 208Pb: Gamma-ray intensity - 208Pb: Level  4 --> Level  3 - gamma energy    0.233330
# E-initial  =   3.708440 E-final=   3.475110
# E-threshold= 3.72643E+00
# # energies = 66
#    E         xs
 1.000E-11 0.00000E+00
 2.530E-08 0.00000E+00
 1.000E-06 0.00000E+00
 1.000E-03 0.00000E+00
 2.000E-03 0.00000E+00
 5.000E-03 0.00000E+00
 1.000E-02 0.00000E+00
 2.000E-02 0.00000E+00
 5.000E-02 0.00000E+00
 1.000E-01 0.00000E+00
 2.000E-01 0.00000E+00
 3.000E-01 0.00000E+00
 4.000E-01 0.00000E+00
 5.000E-01 0.00000E+00
 7.500E-01 0.00000E+00
 1.000E+00 0.00000E+00
 1.200E+00 0.00000E+00
 1.400E+00 0.00000E+00
 1.600E+00 0.00000E+00
 1.800E+00 0.00000E+00
 2.000E+00 0.00000E+00
 2.200E+00 0.00000E+00
 2.400E+00 0.00000E+00
 2.600E+00 0.00000E+00
 2.800E+00 0.00000E+00
 3.000E+00 0.00000E+00
 3.200E+00 0.00000E+00
 3.400E+00 0.00000E+00
 3.600E+00 0.00000E+00
 3.800E+00 1.74797E+00
 4.000E+00 4.56834E+00
 4.200E+00 6.95739E+00
 4.400E+00 8.28278E+00
 4.600E+00 8.91088E+00
 4.800E+00 9.17976E+00
 5.000E+00 9.32928E+00
 5.500E+00 9.71176E+00
 6.000E+00 1.02396E+01
 6.500E+00 1.09729E+01
 7.000E+00 1.19213E+01
 7.500E+00 1.30213E+01
 8.000E+00 1.39020E+01
 8.500E+00 1.40262E+01
 9.000E+00 1.31185E+01
 9.500E+00 1.14456E+01
 1.000E+01 9.48881E+00
 1.100E+01 6.02818E+00
 1.200E+01 3.92882E+00
 1.300E+01 2.97177E+00
 1.400E+01 2.52590E+00
 1.500E+01 2.31578E+00
 1.600E+01 2.19084E+00
 1.700E+01 2.11877E+00
 1.800E+01 2.01484E+00
 1.900E+01 1.93772E+00
 2.000E+01 1.86068E+00
 2.100E+01 1.79024E+00
 2.200E+01 1.71408E+00
 2.300E+01 1.65990E+00
 2.400E+01 1.57269E+00
 2.500E+01 1.50988E+00
 2.600E+01 1.43490E+00
 2.700E+01 1.38333E+00
 2.800E+01 1.34366E+00
 2.900E+01 1.27456E+00
 3.000E+01 1.23260E+00
