# n + 208Pb: Gamma-ray intensity - 209Pb: Level  6 --> Level  4 - gamma energy    0.286780
# E-initial  =   2.319000 E-final=   2.032220
# E-threshold= 0.00000E+00
# # energies = 67
#    E         xs
 1.000E-11 0.00000E+00
 2.530E-08 0.00000E+00
 2.000E-07 0.00000E+00
 1.000E-06 6.96137E+01
 1.000E-03 1.51313E-01
 2.000E-03 1.00160E-01
 5.000E-03 6.53821E-02
 1.000E-02 4.21767E-02
 2.000E-02 2.43971E-02
 5.000E-02 1.17439E-02
 1.000E-01 7.06862E-03
 2.000E-01 4.62285E-03
 3.000E-01 3.89397E-03
 4.000E-01 3.64128E-03
 5.000E-01 3.59875E-03
 7.500E-01 3.95507E-03
 1.000E+00 4.69056E-03
 1.200E+00 5.50298E-03
 1.400E+00 6.59928E-03
 1.600E+00 7.79307E-03
 1.800E+00 9.35747E-03
 2.000E+00 1.12244E-02
 2.200E+00 1.34155E-02
 2.400E+00 1.59934E-02
 2.600E+00 1.96589E-02
 2.800E+00 1.75364E-02
 3.000E+00 1.76872E-02
 3.200E+00 1.93453E-02
 3.400E+00 2.03361E-02
 3.600E+00 2.21714E-02
 3.800E+00 2.26342E-02
 4.000E+00 2.42388E-02
 4.200E+00 2.26700E-02
 4.400E+00 1.76112E-02
 4.600E+00 1.47940E-02
 4.800E+00 1.28495E-02
 5.000E+00 1.10689E-02
 5.500E+00 9.50452E-03
 6.000E+00 8.44470E-03
 6.500E+00 8.95137E-03
 7.000E+00 9.96814E-03
 7.500E+00 1.29449E-02
 8.000E+00 1.80599E-02
 8.500E+00 2.65714E-02
 9.000E+00 4.14696E-02
 9.500E+00 6.32094E-02
 1.000E+01 8.32876E-02
 1.100E+01 8.27309E-02
 1.200E+01 5.73437E-02
 1.300E+01 3.58419E-02
 1.400E+01 2.79844E-02
 1.500E+01 2.25264E-02
 1.600E+01 1.90580E-02
 1.700E+01 1.66370E-02
 1.800E+01 1.38225E-02
 1.900E+01 1.27337E-02
 2.000E+01 1.19302E-02
 2.100E+01 1.11699E-02
 2.200E+01 1.04481E-02
 2.300E+01 1.00904E-02
 2.400E+01 9.77319E-03
 2.500E+01 9.47826E-03
 2.600E+01 9.27581E-03
 2.700E+01 8.65619E-03
 2.800E+01 8.06217E-03
 2.900E+01 7.92712E-03
 3.000E+01 7.86135E-03
