# n + 208Pb: Gamma-ray intensity - 209Pb: Level  5 --> Level  4 - gamma energy    0.117210
# E-initial  =   2.149430 E-final=   2.032220
# E-threshold= 0.00000E+00
# # energies = 67
#    E         xs
 1.000E-11 0.00000E+00
 2.530E-08 0.00000E+00
 2.000E-07 0.00000E+00
 1.000E-06 9.08850E+01
 1.000E-03 1.92364E-01
 2.000E-03 1.15104E-01
 5.000E-03 6.08658E-02
 1.000E-02 3.50400E-02
 2.000E-02 1.90662E-02
 5.000E-02 8.63075E-03
 1.000E-01 4.99561E-03
 2.000E-01 3.18411E-03
 3.000E-01 2.65760E-03
 4.000E-01 2.47419E-03
 5.000E-01 2.43898E-03
 7.500E-01 2.67480E-03
 1.000E+00 3.17282E-03
 1.200E+00 3.72523E-03
 1.400E+00 4.47395E-03
 1.600E+00 5.28767E-03
 1.800E+00 6.35713E-03
 2.000E+00 7.63971E-03
 2.200E+00 9.14861E-03
 2.400E+00 1.09404E-02
 2.600E+00 1.34789E-02
 2.800E+00 1.33302E-02
 3.000E+00 1.39160E-02
 3.200E+00 1.54491E-02
 3.400E+00 1.64101E-02
 3.600E+00 1.82459E-02
 3.800E+00 1.90651E-02
 4.000E+00 2.07281E-02
 4.200E+00 2.01434E-02
 4.400E+00 2.01893E-02
 4.600E+00 1.74278E-02
 4.800E+00 1.62858E-02
 5.000E+00 1.47180E-02
 5.500E+00 1.42038E-02
 6.000E+00 1.42133E-02
 6.500E+00 1.60638E-02
 7.000E+00 1.85341E-02
 7.500E+00 2.34397E-02
 8.000E+00 3.03498E-02
 8.500E+00 3.95355E-02
 9.000E+00 5.18408E-02
 9.500E+00 6.46464E-02
 1.000E+01 7.27817E-02
 1.100E+01 7.14232E-02
 1.200E+01 5.76769E-02
 1.300E+01 4.22185E-02
 1.400E+01 3.37592E-02
 1.500E+01 2.85764E-02
 1.600E+01 2.49272E-02
 1.700E+01 2.22542E-02
 1.800E+01 1.89594E-02
 1.900E+01 1.76509E-02
 2.000E+01 1.65478E-02
 2.100E+01 1.57836E-02
 2.200E+01 1.50785E-02
 2.300E+01 1.45520E-02
 2.400E+01 1.40308E-02
 2.500E+01 1.34189E-02
 2.600E+01 1.29403E-02
 2.700E+01 1.21296E-02
 2.800E+01 1.09521E-02
 2.900E+01 1.04765E-02
 3.000E+01 1.00782E-02
