# n + 208Pb: Gamma-ray intensity - 209Pb: Level  6 --> Level  4 - gamma energy    0.286780
# E-initial  =   2.319000 E-final=   2.032220
# E-threshold= 0.00000E+00
# # energies = 67
#    E         xs
 1.000E-11 0.00000E+00
 2.530E-08 0.00000E+00
 2.000E-07 0.00000E+00
 1.000E-06 6.96357E+01
 1.000E-03 1.49982E-01
 2.000E-03 9.85324E-02
 5.000E-03 6.45966E-02
 1.000E-02 4.19205E-02
 2.000E-02 2.43433E-02
 5.000E-02 1.17409E-02
 1.000E-01 7.06943E-03
 2.000E-01 4.62359E-03
 3.000E-01 3.89282E-03
 4.000E-01 3.63829E-03
 5.000E-01 3.59532E-03
 7.500E-01 3.93608E-03
 1.000E+00 4.67623E-03
 1.200E+00 5.51902E-03
 1.400E+00 6.50745E-03
 1.600E+00 7.78455E-03
 1.800E+00 9.31700E-03
 2.000E+00 1.11335E-02
 2.200E+00 1.35497E-02
 2.400E+00 1.62126E-02
 2.600E+00 1.91594E-02
 2.800E+00 1.77050E-02
 3.000E+00 1.78183E-02
 3.200E+00 1.93389E-02
 3.400E+00 2.04184E-02
 3.600E+00 2.21165E-02
 3.800E+00 2.26709E-02
 4.000E+00 2.41002E-02
 4.200E+00 2.26994E-02
 4.400E+00 1.82395E-02
 4.600E+00 1.58939E-02
 4.800E+00 1.55470E-02
 5.000E+00 1.43393E-02
 5.500E+00 1.14917E-02
 6.000E+00 9.97604E-03
 6.500E+00 9.93953E-03
 7.000E+00 1.12103E-02
 7.500E+00 1.36099E-02
 8.000E+00 1.87704E-02
 8.500E+00 2.76954E-02
 9.000E+00 4.21380E-02
 9.500E+00 6.38386E-02
 1.000E+01 8.51488E-02
 1.100E+01 8.43692E-02
 1.200E+01 5.72915E-02
 1.300E+01 3.86444E-02
 1.400E+01 2.99869E-02
 1.500E+01 2.37631E-02
 1.600E+01 1.98539E-02
 1.700E+01 1.80479E-02
 1.800E+01 1.62463E-02
 1.900E+01 1.56675E-02
 2.000E+01 1.46929E-02
 2.100E+01 1.31600E-02
 2.200E+01 1.24512E-02
 2.300E+01 1.18147E-02
 2.400E+01 1.08782E-02
 2.500E+01 1.03013E-02
 2.600E+01 9.42292E-03
 2.700E+01 8.98732E-03
 2.800E+01 8.39019E-03
 2.900E+01 7.92173E-03
 3.000E+01 7.65280E-03
