# n + 208Pb: Gamma-ray intensity - 209Pb: Level 10 --> Level  3 - gamma energy    0.970910
# E-initial  =   2.538000 E-final=   1.567090
# E-threshold= 0.00000E+00
# # energies = 67
#    E         xs
 1.000E-11 0.00000E+00
 2.530E-08 0.00000E+00
 2.000E-07 0.00000E+00
 1.000E-06 1.06679E+01
 1.000E-03 1.69338E-01
 2.000E-03 9.40086E-02
 5.000E-03 4.32097E-02
 1.000E-02 2.37188E-02
 2.000E-02 1.27590E-02
 5.000E-02 6.82962E-03
 1.000E-01 4.69111E-03
 2.000E-01 3.27694E-03
 3.000E-01 2.77981E-03
 4.000E-01 2.57780E-03
 5.000E-01 2.51348E-03
 7.500E-01 2.63758E-03
 1.000E+00 2.95933E-03
 1.200E+00 3.30929E-03
 1.400E+00 3.79958E-03
 1.600E+00 4.25263E-03
 1.800E+00 4.88581E-03
 2.000E+00 5.62391E-03
 2.200E+00 6.46955E-03
 2.400E+00 7.45064E-03
 2.600E+00 9.12441E-03
 2.800E+00 8.14290E-03
 3.000E+00 8.39582E-03
 3.200E+00 9.50728E-03
 3.400E+00 1.02876E-02
 3.600E+00 1.17058E-02
 3.800E+00 1.25658E-02
 4.000E+00 1.41640E-02
 4.200E+00 1.37978E-02
 4.400E+00 1.02391E-02
 4.600E+00 7.69861E-03
 4.800E+00 5.91823E-03
 5.000E+00 4.56649E-03
 5.500E+00 3.01582E-03
 6.000E+00 2.18362E-03
 6.500E+00 1.82479E-03
 7.000E+00 1.67520E-03
 7.500E+00 1.83251E-03
 8.000E+00 2.26626E-03
 8.500E+00 3.19127E-03
 9.000E+00 4.86504E-03
 9.500E+00 7.86230E-03
 1.000E+01 1.21045E-02
 1.100E+01 1.84309E-02
 1.200E+01 1.42643E-02
 1.300E+01 8.83781E-03
 1.400E+01 6.65066E-03
 1.500E+01 5.69777E-03
 1.600E+01 5.01279E-03
 1.700E+01 4.30976E-03
 1.800E+01 3.51466E-03
 1.900E+01 3.19618E-03
 2.000E+01 2.96838E-03
 2.100E+01 2.96565E-03
 2.200E+01 2.87926E-03
 2.300E+01 2.93157E-03
 2.400E+01 2.85752E-03
 2.500E+01 2.89377E-03
 2.600E+01 2.95454E-03
 2.700E+01 2.77029E-03
 2.800E+01 2.69009E-03
 2.900E+01 2.71520E-03
 3.000E+01 2.78150E-03
