# n + 208Pb: Gamma-ray intensity - 208Pb: Level  6 --> Level  2 - gamma energy    0.748700
# E-initial  =   3.946440 E-final=   3.197740
# E-threshold= 3.96558E+00
# # energies = 66
#    E         xs
 1.000E-11 0.00000E+00
 2.530E-08 0.00000E+00
 1.000E-06 0.00000E+00
 1.000E-03 0.00000E+00
 2.000E-03 0.00000E+00
 5.000E-03 0.00000E+00
 1.000E-02 0.00000E+00
 2.000E-02 0.00000E+00
 5.000E-02 0.00000E+00
 1.000E-01 0.00000E+00
 2.000E-01 0.00000E+00
 3.000E-01 0.00000E+00
 4.000E-01 0.00000E+00
 5.000E-01 0.00000E+00
 7.500E-01 0.00000E+00
 1.000E+00 0.00000E+00
 1.200E+00 0.00000E+00
 1.400E+00 0.00000E+00
 1.600E+00 0.00000E+00
 1.800E+00 0.00000E+00
 2.000E+00 0.00000E+00
 2.200E+00 0.00000E+00
 2.400E+00 0.00000E+00
 2.600E+00 0.00000E+00
 2.800E+00 0.00000E+00
 3.000E+00 0.00000E+00
 3.200E+00 0.00000E+00
 3.400E+00 0.00000E+00
 3.600E+00 0.00000E+00
 3.800E+00 0.00000E+00
 4.000E+00 2.85050E+01
 4.200E+00 7.94898E+01
 4.400E+00 9.88603E+01
 4.600E+00 1.02413E+02
 4.800E+00 9.90486E+01
 5.000E+00 9.37722E+01
 5.500E+00 8.23657E+01
 6.000E+00 7.49652E+01
 6.500E+00 7.03640E+01
 7.000E+00 6.80477E+01
 7.500E+00 6.72541E+01
 8.000E+00 6.35826E+01
 8.500E+00 5.51581E+01
 9.000E+00 4.44892E+01
 9.500E+00 3.42975E+01
 1.000E+01 2.55480E+01
 1.100E+01 1.41498E+01
 1.200E+01 9.05020E+00
 1.300E+01 6.84299E+00
 1.400E+01 5.85364E+00
 1.500E+01 5.31013E+00
 1.600E+01 4.93717E+00
 1.700E+01 4.70202E+00
 1.800E+01 4.42612E+00
 1.900E+01 4.18065E+00
 2.000E+01 3.98715E+00
 2.100E+01 3.80295E+00
 2.200E+01 3.62351E+00
 2.300E+01 3.45247E+00
 2.400E+01 3.27182E+00
 2.500E+01 3.13280E+00
 2.600E+01 2.97896E+00
 2.700E+01 2.84940E+00
 2.800E+01 2.74109E+00
 2.900E+01 2.64331E+00
 3.000E+01 2.51491E+00
