# n + 208Pb: Gamma-ray intensity - 208Pb: Level 10 --> Level  3 - gamma energy    0.569890
# E-initial  =   4.045000 E-final=   3.475110
# E-threshold= 4.06462E+00
# # energies = 66
#    E         xs
 1.000E-11 0.00000E+00
 2.530E-08 0.00000E+00
 1.000E-06 0.00000E+00
 1.000E-03 0.00000E+00
 2.000E-03 0.00000E+00
 5.000E-03 0.00000E+00
 1.000E-02 0.00000E+00
 2.000E-02 0.00000E+00
 5.000E-02 0.00000E+00
 1.000E-01 0.00000E+00
 2.000E-01 0.00000E+00
 3.000E-01 0.00000E+00
 4.000E-01 0.00000E+00
 5.000E-01 0.00000E+00
 7.500E-01 0.00000E+00
 1.000E+00 0.00000E+00
 1.200E+00 0.00000E+00
 1.400E+00 0.00000E+00
 1.600E+00 0.00000E+00
 1.800E+00 0.00000E+00
 2.000E+00 0.00000E+00
 2.200E+00 0.00000E+00
 2.400E+00 0.00000E+00
 2.600E+00 0.00000E+00
 2.800E+00 0.00000E+00
 3.000E+00 0.00000E+00
 3.200E+00 0.00000E+00
 3.400E+00 0.00000E+00
 3.600E+00 0.00000E+00
 3.800E+00 0.00000E+00
 4.000E+00 0.00000E+00
 4.200E+00 1.03875E+01
 4.400E+00 1.58336E+01
 4.600E+00 1.91372E+01
 4.800E+00 2.08046E+01
 5.000E+00 2.17150E+01
 5.500E+00 2.34707E+01
 6.000E+00 2.57080E+01
 6.500E+00 2.84257E+01
 7.000E+00 3.16126E+01
 7.500E+00 3.51702E+01
 8.000E+00 3.83773E+01
 8.500E+00 3.96337E+01
 9.000E+00 3.74047E+01
 9.500E+00 3.24199E+01
 1.000E+01 2.64806E+01
 1.100E+01 1.60419E+01
 1.200E+01 9.94870E+00
 1.300E+01 7.28744E+00
 1.400E+01 6.09465E+00
 1.500E+01 5.54533E+00
 1.600E+01 5.23551E+00
 1.700E+01 5.05423E+00
 1.800E+01 4.78209E+00
 1.900E+01 4.59346E+00
 2.000E+01 4.39918E+00
 2.100E+01 4.22128E+00
 2.200E+01 4.02452E+00
 2.300E+01 3.90740E+00
 2.400E+01 3.68517E+00
 2.500E+01 3.54904E+00
 2.600E+01 3.35582E+00
 2.700E+01 3.24646E+00
 2.800E+01 3.15711E+00
 2.900E+01 2.97696E+00
 3.000E+01 2.88687E+00
