# n + 208Pb: Gamma-ray intensity - 209Pb: Level 10 --> Level  3 - gamma energy    0.970910
# E-initial  =   2.538000 E-final=   1.567090
# E-threshold= 0.00000E+00
# # energies = 66
#    E         xs
 1.000E-11 0.00000E+00
 2.530E-08 0.00000E+00
 1.000E-06 0.00000E+00
 1.000E-03 0.00000E+00
 2.000E-03 0.00000E+00
 5.000E-03 0.00000E+00
 1.000E-02 0.00000E+00
 2.000E-02 0.00000E+00
 5.000E-02 0.00000E+00
 1.000E-01 0.00000E+00
 2.000E-01 0.00000E+00
 3.000E-01 0.00000E+00
 4.000E-01 0.00000E+00
 5.000E-01 0.00000E+00
 7.500E-01 0.00000E+00
 1.000E+00 2.77314E-03
 1.200E+00 2.97387E-03
 1.400E+00 3.26507E-03
 1.600E+00 3.54405E-03
 1.800E+00 3.92909E-03
 2.000E+00 4.37612E-03
 2.200E+00 4.88801E-03
 2.400E+00 5.48074E-03
 2.600E+00 6.51672E-03
 2.800E+00 5.99733E-03
 3.000E+00 6.28676E-03
 3.200E+00 7.06792E-03
 3.400E+00 7.79088E-03
 3.600E+00 8.84849E-03
 3.800E+00 9.67071E-03
 4.000E+00 1.08519E-02
 4.200E+00 1.06479E-02
 4.400E+00 8.36278E-03
 4.600E+00 6.88782E-03
 4.800E+00 5.84814E-03
 5.000E+00 5.00699E-03
 5.500E+00 3.81140E-03
 6.000E+00 3.04574E-03
 6.500E+00 2.65597E-03
 7.000E+00 2.50440E-03
 7.500E+00 2.65827E-03
 8.000E+00 3.11173E-03
 8.500E+00 4.11300E-03
 9.000E+00 5.87435E-03
 9.500E+00 9.06307E-03
 1.000E+01 1.34505E-02
 1.100E+01 2.01125E-02
 1.200E+01 1.59685E-02
 1.300E+01 9.67522E-03
 1.400E+01 6.76000E-03
 1.500E+01 5.54504E-03
 1.600E+01 4.81279E-03
 1.700E+01 4.25447E-03
 1.800E+01 3.42673E-03
 1.900E+01 2.99672E-03
 2.000E+01 2.77257E-03
 2.100E+01 2.72965E-03
 2.200E+01 2.67143E-03
 2.300E+01 2.68767E-03
 2.400E+01 2.64471E-03
 2.500E+01 2.66551E-03
 2.600E+01 2.69533E-03
 2.700E+01 2.39460E-03
 2.800E+01 2.34255E-03
 2.900E+01 2.26065E-03
 3.000E+01 2.23989E-03
