# n + 208Pb: Gamma-ray intensity - 208Pb: Level 14 --> Level  3 - gamma energy    0.650200
# E-initial  =   4.125310 E-final=   3.475110
# E-threshold= 4.14532E+00
# # energies = 66
#    E         xs
 1.000E-11 0.00000E+00
 2.530E-08 0.00000E+00
 1.000E-06 0.00000E+00
 1.000E-03 0.00000E+00
 2.000E-03 0.00000E+00
 5.000E-03 0.00000E+00
 1.000E-02 0.00000E+00
 2.000E-02 0.00000E+00
 5.000E-02 0.00000E+00
 1.000E-01 0.00000E+00
 2.000E-01 0.00000E+00
 3.000E-01 0.00000E+00
 4.000E-01 0.00000E+00
 5.000E-01 0.00000E+00
 7.500E-01 0.00000E+00
 1.000E+00 0.00000E+00
 1.200E+00 0.00000E+00
 1.400E+00 0.00000E+00
 1.600E+00 0.00000E+00
 1.800E+00 0.00000E+00
 2.000E+00 0.00000E+00
 2.200E+00 0.00000E+00
 2.400E+00 0.00000E+00
 2.600E+00 0.00000E+00
 2.800E+00 0.00000E+00
 3.000E+00 0.00000E+00
 3.200E+00 0.00000E+00
 3.400E+00 0.00000E+00
 3.600E+00 0.00000E+00
 3.800E+00 0.00000E+00
 4.000E+00 0.00000E+00
 4.200E+00 5.73541E+00
 4.400E+00 1.25523E+01
 4.600E+00 1.56101E+01
 4.800E+00 1.63130E+01
 5.000E+00 1.58383E+01
 5.500E+00 1.35675E+01
 6.000E+00 1.19218E+01
 6.500E+00 1.09269E+01
 7.000E+00 1.03717E+01
 7.500E+00 1.01497E+01
 8.000E+00 9.55324E+00
 8.500E+00 8.25818E+00
 9.000E+00 6.63961E+00
 9.500E+00 5.10112E+00
 1.000E+01 3.78544E+00
 1.100E+01 2.07890E+00
 1.200E+01 1.31598E+00
 1.300E+01 9.84953E-01
 1.400E+01 8.37860E-01
 1.500E+01 7.59702E-01
 1.600E+01 7.08121E-01
 1.700E+01 6.77301E-01
 1.800E+01 6.40777E-01
 1.900E+01 6.08047E-01
 2.000E+01 5.81898E-01
 2.100E+01 5.57800E-01
 2.200E+01 5.33442E-01
 2.300E+01 5.10914E-01
 2.400E+01 4.85524E-01
 2.500E+01 4.67051E-01
 2.600E+01 4.46187E-01
 2.700E+01 4.27696E-01
 2.800E+01 4.12098E-01
 2.900E+01 3.97319E-01
 3.000E+01 3.79654E-01
