# n + 208Pb: Gamma-ray intensity - 209Pb: Level  8 --> Level  3 - gamma energy    0.895910
# E-initial  =   2.463000 E-final=   1.567090
# E-threshold= 0.00000E+00
# # energies = 67
#    E         xs
 1.000E-11 0.00000E+00
 2.530E-08 0.00000E+00
 2.000E-07 0.00000E+00
 1.000E-06 2.28112E-03
 1.000E-03 2.28986E-03
 2.000E-03 3.05625E-03
 5.000E-03 3.58586E-03
 1.000E-02 2.74382E-03
 2.000E-02 1.70391E-03
 5.000E-02 9.06296E-04
 1.000E-01 6.77199E-04
 2.000E-01 7.13996E-04
 3.000E-01 7.66015E-04
 4.000E-01 7.99585E-04
 5.000E-01 8.38042E-04
 7.500E-01 9.84834E-04
 1.000E+00 1.20576E-03
 1.200E+00 1.44100E-03
 1.400E+00 1.74364E-03
 1.600E+00 2.10349E-03
 1.800E+00 2.55478E-03
 2.000E+00 3.10403E-03
 2.200E+00 3.76247E-03
 2.400E+00 4.55385E-03
 2.600E+00 5.55081E-03
 2.800E+00 4.07287E-03
 3.000E+00 3.93604E-03
 3.200E+00 4.18513E-03
 3.400E+00 3.94653E-03
 3.600E+00 3.91467E-03
 3.800E+00 3.89204E-03
 4.000E+00 3.91326E-03
 4.200E+00 3.48276E-03
 4.400E+00 3.12880E-03
 4.600E+00 2.80507E-03
 4.800E+00 2.61297E-03
 5.000E+00 2.38905E-03
 5.500E+00 2.19889E-03
 6.000E+00 2.02861E-03
 6.500E+00 2.07288E-03
 7.000E+00 2.11688E-03
 7.500E+00 2.38560E-03
 8.000E+00 2.81151E-03
 8.500E+00 3.30205E-03
 9.000E+00 4.14586E-03
 9.500E+00 5.20629E-03
 1.000E+01 6.18568E-03
 1.100E+01 7.07630E-03
 1.200E+01 6.34840E-03
 1.300E+01 4.70527E-03
 1.400E+01 3.65227E-03
 1.500E+01 3.05138E-03
 1.600E+01 2.59267E-03
 1.700E+01 2.25604E-03
 1.800E+01 1.90480E-03
 1.900E+01 1.72741E-03
 2.000E+01 1.63807E-03
 2.100E+01 1.57386E-03
 2.200E+01 1.50356E-03
 2.300E+01 1.45688E-03
 2.400E+01 1.40626E-03
 2.500E+01 1.35168E-03
 2.600E+01 1.32688E-03
 2.700E+01 1.30134E-03
 2.800E+01 1.17985E-03
 2.900E+01 1.15841E-03
 3.000E+01 1.14926E-03
