# n + 208Pb: Gamma-ray intensity - 209Pb: Level  2 --> Level  1 - gamma energy    0.644200
# E-initial  =   1.423000 E-final=   0.778800
# E-threshold= 0.00000E+00
# # energies = 67
#    E         xs
 1.000E-11 0.00000E+00
 2.530E-08 0.00000E+00
 2.000E-07 0.00000E+00
 1.000E-06 0.00000E+00
 1.000E-03 0.00000E+00
 2.000E-03 0.00000E+00
 5.000E-03 0.00000E+00
 1.000E-02 0.00000E+00
 2.000E-02 0.00000E+00
 5.000E-02 1.35386E-10
 1.000E-01 3.71640E-09
 2.000E-01 1.11079E-07
 3.000E-01 9.28106E-06
 4.000E-01 2.61241E-05
 5.000E-01 4.86033E-05
 7.500E-01 1.13539E-04
 1.000E+00 4.09448E-04
 1.200E+00 7.07409E-04
 1.400E+00 1.29969E-03
 1.600E+00 2.05338E-03
 1.800E+00 3.13026E-03
 2.000E+00 4.80494E-03
 2.200E+00 7.04608E-03
 2.400E+00 1.01325E-02
 2.600E+00 1.43350E-02
 2.800E+00 1.84660E-02
 3.000E+00 2.11763E-02
 3.200E+00 2.40170E-02
 3.400E+00 1.22611E-02
 3.600E+00 9.69220E-03
 3.800E+00 8.17590E-03
 4.000E+00 6.41598E-03
 4.200E+00 3.48310E-03
 4.400E+00 4.76067E-03
 4.600E+00 4.69321E-03
 4.800E+00 4.95756E-03
 5.000E+00 4.96311E-03
 5.500E+00 5.96538E-03
 6.000E+00 7.39905E-03
 6.500E+00 9.43678E-03
 7.000E+00 1.22889E-02
 7.500E+00 1.60571E-02
 8.000E+00 2.07366E-02
 8.500E+00 2.59133E-02
 9.000E+00 3.06630E-02
 9.500E+00 3.41314E-02
 1.000E+01 3.63501E-02
 1.100E+01 3.98826E-02
 1.200E+01 4.41259E-02
 1.300E+01 4.76878E-02
 1.400E+01 4.78926E-02
 1.500E+01 4.31113E-02
 1.600E+01 3.64054E-02
 1.700E+01 3.11486E-02
 1.800E+01 2.70618E-02
 1.900E+01 2.45032E-02
 2.000E+01 2.25234E-02
 2.100E+01 2.14309E-02
 2.200E+01 2.03263E-02
 2.300E+01 1.94523E-02
 2.400E+01 1.85734E-02
 2.500E+01 1.76858E-02
 2.600E+01 1.68832E-02
 2.700E+01 1.60017E-02
 2.800E+01 1.49835E-02
 2.900E+01 1.43900E-02
 3.000E+01 1.37255E-02
