# n + 208Pb: Gamma-ray intensity - 209Pb: Level  4 --> Level  3 - gamma energy    0.465130
# E-initial  =   2.032220 E-final=   1.567090
# E-threshold= 0.00000E+00
# # energies = 67
#    E         xs
 1.000E-11 0.00000E+00
 2.530E-08 0.00000E+00
 2.000E-07 0.00000E+00
 1.000E-06 2.93241E+02
 1.000E-03 1.10186E+00
 2.000E-03 6.33446E-01
 5.000E-03 3.25466E-01
 1.000E-02 1.91218E-01
 2.000E-02 1.06418E-01
 5.000E-02 5.00210E-02
 1.000E-01 3.01673E-02
 2.000E-01 1.96960E-02
 3.000E-01 1.64548E-02
 4.000E-01 1.52107E-02
 5.000E-01 1.48250E-02
 7.500E-01 1.56519E-02
 1.000E+00 1.76430E-02
 1.200E+00 1.97781E-02
 1.400E+00 2.27702E-02
 1.600E+00 2.54905E-02
 1.800E+00 2.92913E-02
 2.000E+00 3.36909E-02
 2.200E+00 3.89189E-02
 2.400E+00 4.53647E-02
 2.600E+00 5.57160E-02
 2.800E+00 5.17625E-02
 3.000E+00 5.31507E-02
 3.200E+00 5.97893E-02
 3.400E+00 6.44720E-02
 3.600E+00 7.34051E-02
 3.800E+00 7.87620E-02
 4.000E+00 8.89050E-02
 4.200E+00 8.85975E-02
 4.400E+00 6.71573E-02
 4.600E+00 5.10553E-02
 4.800E+00 4.06274E-02
 5.000E+00 3.22330E-02
 5.500E+00 2.48894E-02
 6.000E+00 2.21625E-02
 6.500E+00 2.47935E-02
 7.000E+00 3.09679E-02
 7.500E+00 4.47802E-02
 8.000E+00 6.93395E-02
 8.500E+00 1.12705E-01
 9.000E+00 1.85049E-01
 9.500E+00 2.82927E-01
 1.000E+01 3.63153E-01
 1.100E+01 3.35873E-01
 1.200E+01 2.23897E-01
 1.300E+01 1.41479E-01
 1.400E+01 1.07188E-01
 1.500E+01 8.69535E-02
 1.600E+01 7.39139E-02
 1.700E+01 6.44230E-02
 1.800E+01 5.47366E-02
 1.900E+01 5.06652E-02
 2.000E+01 4.70842E-02
 2.100E+01 4.48257E-02
 2.200E+01 4.27679E-02
 2.300E+01 4.13971E-02
 2.400E+01 3.98335E-02
 2.500E+01 3.87470E-02
 2.600E+01 3.78331E-02
 2.700E+01 3.53967E-02
 2.800E+01 3.37334E-02
 2.900E+01 3.31969E-02
 3.000E+01 3.28112E-02
