# n + 208Pb: Gamma-ray intensity - 209Pb: Level  9 --> Level  1 - gamma energy    1.712200
# E-initial  =   2.491000 E-final=   0.778800
# E-threshold= 0.00000E+00
# # energies = 67
#    E         xs
 1.000E-11 0.00000E+00
 2.530E-08 0.00000E+00
 2.000E-07 0.00000E+00
 1.000E-06 3.15264E-05
 1.000E-03 4.97410E-05
 2.000E-03 7.93177E-05
 5.000E-03 9.93792E-05
 1.000E-02 7.74956E-05
 2.000E-02 4.88905E-05
 5.000E-02 1.07098E-04
 1.000E-01 1.15788E-04
 2.000E-01 9.89635E-05
 3.000E-01 9.19822E-05
 4.000E-01 9.20616E-05
 5.000E-01 9.72464E-05
 7.500E-01 1.20849E-04
 1.000E+00 1.52548E-04
 1.200E+00 1.83748E-04
 1.400E+00 2.22376E-04
 1.600E+00 2.67255E-04
 1.800E+00 3.22554E-04
 2.000E+00 3.88754E-04
 2.200E+00 4.67341E-04
 2.400E+00 5.60477E-04
 2.600E+00 6.80093E-04
 2.800E+00 5.18200E-04
 3.000E+00 4.96553E-04
 3.200E+00 5.28825E-04
 3.400E+00 5.07907E-04
 3.600E+00 5.11181E-04
 3.800E+00 5.16062E-04
 4.000E+00 5.31050E-04
 4.200E+00 4.66506E-04
 4.400E+00 3.90005E-04
 4.600E+00 3.43894E-04
 4.800E+00 3.06643E-04
 5.000E+00 2.82251E-04
 5.500E+00 2.38581E-04
 6.000E+00 2.07226E-04
 6.500E+00 1.84461E-04
 7.000E+00 1.76440E-04
 7.500E+00 1.79713E-04
 8.000E+00 2.02027E-04
 8.500E+00 2.46327E-04
 9.000E+00 3.19845E-04
 9.500E+00 4.45601E-04
 1.000E+01 6.16411E-04
 1.100E+01 8.04089E-04
 1.200E+01 6.12839E-04
 1.300E+01 4.17049E-04
 1.400E+01 2.92247E-04
 1.500E+01 2.34349E-04
 1.600E+01 1.98102E-04
 1.700E+01 1.71811E-04
 1.800E+01 1.52828E-04
 1.900E+01 1.33351E-04
 2.000E+01 1.23422E-04
 2.100E+01 1.17412E-04
 2.200E+01 1.10852E-04
 2.300E+01 1.09408E-04
 2.400E+01 1.07302E-04
 2.500E+01 1.05179E-04
 2.600E+01 1.04859E-04
 2.700E+01 1.04366E-04
 2.800E+01 1.00692E-04
 2.900E+01 9.67902E-05
 3.000E+01 9.64609E-05
