# n + 208Pb: Gamma-ray intensity - 209Pb: Level  8 --> Level  3 - gamma energy    0.895910
# E-initial  =   2.463000 E-final=   1.567090
# E-threshold= 0.00000E+00
# # energies = 67
#    E         xs
 1.000E-11 0.00000E+00
 2.530E-08 0.00000E+00
 2.000E-07 0.00000E+00
 1.000E-06 1.86875E-02
 1.000E-03 4.65928E-03
 2.000E-03 3.95467E-03
 5.000E-03 4.04239E-03
 1.000E-02 3.26550E-03
 2.000E-02 2.11770E-03
 5.000E-02 1.19814E-03
 1.000E-01 9.12242E-04
 2.000E-01 8.94415E-04
 3.000E-01 9.28861E-04
 4.000E-01 9.50033E-04
 5.000E-01 9.78690E-04
 7.500E-01 1.10336E-03
 1.000E+00 1.28605E-03
 1.200E+00 1.46943E-03
 1.400E+00 1.69938E-03
 1.600E+00 1.94678E-03
 1.800E+00 2.25305E-03
 2.000E+00 2.61278E-03
 2.200E+00 3.02989E-03
 2.400E+00 3.52165E-03
 2.600E+00 4.26087E-03
 2.800E+00 3.22467E-03
 3.000E+00 3.11440E-03
 3.200E+00 3.33520E-03
 3.400E+00 3.19369E-03
 3.600E+00 3.25911E-03
 3.800E+00 3.32214E-03
 4.000E+00 3.48604E-03
 4.200E+00 3.19940E-03
 4.400E+00 2.50221E-03
 4.600E+00 1.99353E-03
 4.800E+00 1.61374E-03
 5.000E+00 1.29245E-03
 5.500E+00 8.97054E-04
 6.000E+00 6.63883E-04
 6.500E+00 5.76174E-04
 7.000E+00 5.37477E-04
 7.500E+00 6.02869E-04
 8.000E+00 7.65177E-04
 8.500E+00 1.05263E-03
 9.000E+00 1.61135E-03
 9.500E+00 2.57624E-03
 1.000E+01 3.98602E-03
 1.100E+01 6.16225E-03
 1.200E+01 4.81165E-03
 1.300E+01 2.95362E-03
 1.400E+01 2.14272E-03
 1.500E+01 1.72936E-03
 1.600E+01 1.44665E-03
 1.700E+01 1.22140E-03
 1.800E+01 1.01190E-03
 1.900E+01 9.25461E-04
 2.000E+01 8.60800E-04
 2.100E+01 8.30730E-04
 2.200E+01 7.91056E-04
 2.300E+01 7.84255E-04
 2.400E+01 7.56737E-04
 2.500E+01 7.56178E-04
 2.600E+01 7.61324E-04
 2.700E+01 7.40239E-04
 2.800E+01 6.98682E-04
 2.900E+01 7.10360E-04
 3.000E+01 7.26104E-04
