# n + 208Pb: Gamma-ray intensity - 208Pb: Level 10 --> Level  5 - gamma energy    0.125200
# E-initial  =   4.045000 E-final=   3.919800
# E-threshold= 4.06462E+00
# # energies = 67
#    E         xs
 1.000E-11 0.00000E+00
 2.530E-08 0.00000E+00
 2.000E-07 0.00000E+00
 1.000E-06 0.00000E+00
 1.000E-03 0.00000E+00
 2.000E-03 0.00000E+00
 5.000E-03 0.00000E+00
 1.000E-02 0.00000E+00
 2.000E-02 0.00000E+00
 5.000E-02 0.00000E+00
 1.000E-01 0.00000E+00
 2.000E-01 0.00000E+00
 3.000E-01 0.00000E+00
 4.000E-01 0.00000E+00
 5.000E-01 0.00000E+00
 7.500E-01 0.00000E+00
 1.000E+00 0.00000E+00
 1.200E+00 0.00000E+00
 1.400E+00 0.00000E+00
 1.600E+00 0.00000E+00
 1.800E+00 0.00000E+00
 2.000E+00 0.00000E+00
 2.200E+00 0.00000E+00
 2.400E+00 0.00000E+00
 2.600E+00 0.00000E+00
 2.800E+00 0.00000E+00
 3.000E+00 0.00000E+00
 3.200E+00 0.00000E+00
 3.400E+00 0.00000E+00
 3.600E+00 0.00000E+00
 3.800E+00 0.00000E+00
 4.000E+00 0.00000E+00
 4.200E+00 1.03807E+01
 4.400E+00 1.53818E+01
 4.600E+00 1.74490E+01
 4.800E+00 1.80186E+01
 5.000E+00 1.83749E+01
 5.500E+00 2.04688E+01
 6.000E+00 2.37154E+01
 6.500E+00 2.72372E+01
 7.000E+00 3.08392E+01
 7.500E+00 3.44088E+01
 8.000E+00 3.74119E+01
 8.500E+00 3.83561E+01
 9.000E+00 3.61259E+01
 9.500E+00 3.11303E+01
 1.000E+01 2.52008E+01
 1.100E+01 1.52659E+01
 1.200E+01 9.66339E+00
 1.300E+01 7.25616E+00
 1.400E+01 6.15684E+00
 1.500E+01 5.64553E+00
 1.600E+01 5.33359E+00
 1.700E+01 5.17002E+00
 1.800E+01 4.90617E+00
 1.900E+01 4.72113E+00
 2.000E+01 4.51860E+00
 2.100E+01 4.33330E+00
 2.200E+01 4.14880E+00
 2.300E+01 4.01774E+00
 2.400E+01 3.80689E+00
 2.500E+01 3.66157E+00
 2.600E+01 3.47350E+00
 2.700E+01 3.35084E+00
 2.800E+01 3.25928E+00
 2.900E+01 3.08576E+00
 3.000E+01 2.99503E+00
