# n + 208Pb: Gamma-ray intensity - 209Pb: Level 10 --> Level  3 - gamma energy    0.970910
# E-initial  =   2.538000 E-final=   1.567090
# E-threshold= 0.00000E+00
# # energies = 67
#    E         xs
 1.000E-11 0.00000E+00
 2.530E-08 0.00000E+00
 2.000E-07 0.00000E+00
 1.000E-06 8.60177E+00
 1.000E-03 1.45277E-01
 2.000E-03 7.95887E-02
 5.000E-03 3.61871E-02
 1.000E-02 1.96551E-02
 2.000E-02 1.04922E-02
 5.000E-02 5.95256E-03
 1.000E-01 4.05828E-03
 2.000E-01 2.82021E-03
 3.000E-01 2.41449E-03
 4.000E-01 2.27432E-03
 5.000E-01 2.25760E-03
 7.500E-01 2.48471E-03
 1.000E+00 2.95618E-03
 1.200E+00 3.48080E-03
 1.400E+00 4.11577E-03
 1.600E+00 4.92344E-03
 1.800E+00 5.89383E-03
 2.000E+00 7.04455E-03
 2.200E+00 8.53788E-03
 2.400E+00 1.02622E-02
 2.600E+00 1.21478E-02
 2.800E+00 1.12325E-02
 3.000E+00 1.14021E-02
 3.200E+00 1.22929E-02
 3.400E+00 1.32513E-02
 3.600E+00 1.45917E-02
 3.800E+00 1.53377E-02
 4.000E+00 1.66407E-02
 4.200E+00 1.60613E-02
 4.400E+00 1.31657E-02
 4.600E+00 1.16062E-02
 4.800E+00 1.08751E-02
 5.000E+00 9.74065E-03
 5.500E+00 7.70260E-03
 6.000E+00 6.15296E-03
 6.500E+00 5.39173E-03
 7.000E+00 5.01677E-03
 7.500E+00 4.99116E-03
 8.000E+00 5.54717E-03
 8.500E+00 6.55299E-03
 9.000E+00 8.30684E-03
 9.500E+00 1.14101E-02
 1.000E+01 1.53560E-02
 1.100E+01 2.00167E-02
 1.200E+01 1.57607E-02
 1.300E+01 1.05321E-02
 1.400E+01 7.98755E-03
 1.500E+01 6.99876E-03
 1.600E+01 5.87530E-03
 1.700E+01 5.81855E-03
 1.800E+01 5.24948E-03
 1.900E+01 5.57242E-03
 2.000E+01 5.55622E-03
 2.100E+01 4.73998E-03
 2.200E+01 4.65063E-03
 2.300E+01 4.35239E-03
 2.400E+01 3.71593E-03
 2.500E+01 3.41378E-03
 2.600E+01 2.77946E-03
 2.700E+01 2.56383E-03
 2.800E+01 2.23256E-03
 2.900E+01 2.03192E-03
 3.000E+01 1.92051E-03
