# n + 208Pb: Gamma-ray intensity - 209Pb: Level  5 --> Level  4 - gamma energy    0.117210
# E-initial  =   2.149430 E-final=   2.032220
# E-threshold= 0.00000E+00
# # energies = 67
#    E         xs
 1.000E-11 0.00000E+00
 2.530E-08 0.00000E+00
 2.000E-07 0.00000E+00
 1.000E-06 7.10705E+01
 1.000E-03 1.57779E-01
 2.000E-03 9.24665E-02
 5.000E-03 4.85800E-02
 1.000E-02 2.81851E-02
 2.000E-02 1.54535E-02
 5.000E-02 6.99325E-03
 1.000E-01 4.03551E-03
 2.000E-01 2.56477E-03
 3.000E-01 2.13500E-03
 4.000E-01 1.98153E-03
 5.000E-01 1.94866E-03
 7.500E-01 2.11367E-03
 1.000E+00 2.49441E-03
 1.200E+00 2.92056E-03
 1.400E+00 3.44280E-03
 1.600E+00 4.10484E-03
 1.800E+00 4.89919E-03
 2.000E+00 5.84072E-03
 2.200E+00 7.04181E-03
 2.400E+00 8.47273E-03
 2.600E+00 1.00095E-02
 2.800E+00 1.02506E-02
 3.000E+00 1.06326E-02
 3.200E+00 1.16532E-02
 3.400E+00 1.24064E-02
 3.600E+00 1.36652E-02
 3.800E+00 1.42891E-02
 4.000E+00 1.54024E-02
 4.200E+00 1.47975E-02
 4.400E+00 1.19232E-02
 4.600E+00 1.04524E-02
 4.800E+00 1.05528E-02
 5.000E+00 9.61496E-03
 5.500E+00 7.86022E-03
 6.000E+00 6.93898E-03
 6.500E+00 7.10801E-03
 7.000E+00 8.23608E-03
 7.500E+00 1.03389E-02
 8.000E+00 1.45823E-02
 8.500E+00 2.19227E-02
 9.000E+00 3.38789E-02
 9.500E+00 5.16565E-02
 1.000E+01 6.90430E-02
 1.100E+01 6.75100E-02
 1.200E+01 4.53523E-02
 1.300E+01 3.06873E-02
 1.400E+01 2.29243E-02
 1.500E+01 1.85657E-02
 1.600E+01 1.56521E-02
 1.700E+01 1.43429E-02
 1.800E+01 1.29519E-02
 1.900E+01 1.26278E-02
 2.000E+01 1.19191E-02
 2.100E+01 1.06741E-02
 2.200E+01 1.00847E-02
 2.300E+01 9.58288E-03
 2.400E+01 8.82440E-03
 2.500E+01 8.35203E-03
 2.600E+01 7.64107E-03
 2.700E+01 7.28325E-03
 2.800E+01 6.80062E-03
 2.900E+01 6.45998E-03
 3.000E+01 6.23973E-03
